3.301674e+003,9.141430e+001
3.302156e+003,9.141430e+001
3.302638e+003,9.141405e+001
3.303121e+003,9.141399e+001
3.303603e+003,9.141473e+001
3.304085e+003,9.141692e+001
3.304567e+003,9.142079e+001
3.305049e+003,9.142622e+001
3.305531e+003,9.143265e+001
3.306013e+003,9.143960e+001
3.306495e+003,9.144672e+001
3.306978e+003,9.145414e+001
3.307460e+003,9.146201e+001
3.307942e+003,9.147057e+001
3.308424e+003,9.147969e+001
3.308906e+003,9.148891e+001
3.309388e+003,9.149758e+001
3.309870e+003,9.150529e+001
3.310353e+003,9.151207e+001
3.310835e+003,9.151866e+001
3.311317e+003,9.152615e+001
3.311799e+003,9.153572e+001
3.312281e+003,9.154809e+001
3.312763e+003,9.156339e+001
3.313245e+003,9.158109e+001
3.313728e+003,9.160040e+001
3.314210e+003,9.162060e+001
3.314692e+003,9.164139e+001
3.315174e+003,9.166288e+001
3.315656e+003,9.168552e+001
3.316138e+003,9.170964e+001
3.316620e+003,9.173540e+001
3.317103e+003,9.176253e+001
3.317584e+003,9.179056e+001
3.318067e+003,9.181902e+001
3.318549e+003,9.184751e+001
3.319031e+003,9.187579e+001
3.319513e+003,9.190361e+001
3.319995e+003,9.193048e+001
3.320478e+003,9.195575e+001
3.320959e+003,9.197865e+001
3.321442e+003,9.199866e+001
3.321924e+003,9.201586e+001
3.322406e+003,9.203101e+001
3.322888e+003,9.204546e+001
3.323370e+003,9.206084e+001
3.323852e+003,9.207844e+001
3.324334e+003,9.209892e+001
3.324817e+003,9.212200e+001
3.325299e+003,9.214687e+001
3.325781e+003,9.217236e+001
3.326263e+003,9.219749e+001
3.326745e+003,9.222176e+001
3.327227e+003,9.224510e+001
3.327709e+003,9.226776e+001
3.328192e+003,9.228994e+001
3.328674e+003,9.231156e+001
3.329156e+003,9.233224e+001
3.329638e+003,9.235130e+001
3.330120e+003,9.236809e+001
3.330602e+003,9.238227e+001
3.331084e+003,9.239395e+001
3.331567e+003,9.240377e+001
3.332049e+003,9.241283e+001
3.332531e+003,9.242242e+001
3.333013e+003,9.243378e+001
3.333495e+003,9.244773e+001
3.333977e+003,9.246455e+001
3.334459e+003,9.248373e+001
3.334941e+003,9.250424e+001
3.335424e+003,9.252462e+001
3.335906e+003,9.254335e+001
3.336388e+003,9.255941e+001
3.336870e+003,9.257242e+001
3.337352e+003,9.258289e+001
3.337834e+003,9.259192e+001
3.338316e+003,9.260080e+001
3.338799e+003,9.261059e+001
3.339281e+003,9.262165e+001
3.339763e+003,9.263367e+001
3.340245e+003,9.264565e+001
3.340727e+003,9.265636e+001
3.341209e+003,9.266479e+001
3.341691e+003,9.267034e+001
3.342174e+003,9.267304e+001
3.342656e+003,9.267346e+001
3.343138e+003,9.267252e+001
3.343620e+003,9.267142e+001
3.344102e+003,9.267125e+001
3.344584e+003,9.267324e+001
3.345066e+003,9.267829e+001
3.345549e+003,9.268702e+001
3.346031e+003,9.269939e+001
3.346513e+003,9.271465e+001
3.346995e+003,9.273124e+001
3.347477e+003,9.274716e+001
3.347959e+003,9.276045e+001
3.348441e+003,9.276969e+001
3.348924e+003,9.277456e+001
3.349406e+003,9.277591e+001
3.349888e+003,9.277556e+001
3.350370e+003,9.277570e+001
3.350852e+003,9.277831e+001
3.351334e+003,9.278465e+001
3.351816e+003,9.279501e+001
3.352298e+003,9.280885e+001
3.352781e+003,9.282528e+001
3.353263e+003,9.284332e+001
3.353745e+003,9.286228e+001
3.354227e+003,9.288178e+001
3.354709e+003,9.290168e+001
3.355191e+003,9.292188e+001
3.355673e+003,9.294221e+001
3.356156e+003,9.296242e+001
3.356638e+003,9.298230e+001
3.357120e+003,9.300181e+001
3.357602e+003,9.302113e+001
3.358084e+003,9.304072e+001
3.358566e+003,9.306110e+001
3.359048e+003,9.308274e+001
3.359531e+003,9.310588e+001
3.360013e+003,9.313043e+001
3.360495e+003,9.315585e+001
3.360977e+003,9.318130e+001
3.361459e+003,9.320581e+001
3.361941e+003,9.322838e+001
3.362423e+003,9.324828e+001
3.362906e+003,9.326530e+001
3.363388e+003,9.327980e+001
3.363870e+003,9.329276e+001
3.364352e+003,9.330550e+001
3.364834e+003,9.331931e+001
3.365316e+003,9.333501e+001
3.365798e+003,9.335272e+001
3.366281e+003,9.337167e+001
3.366763e+003,9.339061e+001
3.367245e+003,9.340816e+001
3.367727e+003,9.342342e+001
3.368209e+003,9.343623e+001
3.368691e+003,9.344722e+001
3.369173e+003,9.345739e+001
3.369655e+003,9.346777e+001
3.370137e+003,9.347878e+001
3.370620e+003,9.349024e+001
3.371102e+003,9.350138e+001
3.371584e+003,9.351134e+001
3.372066e+003,9.351955e+001
3.372548e+003,9.352606e+001
3.373030e+003,9.353146e+001
3.373512e+003,9.353651e+001
3.373995e+003,9.354171e+001
3.374477e+003,9.354693e+001
3.374959e+003,9.355139e+001
3.375441e+003,9.355397e+001
3.375923e+003,9.355369e+001
3.376405e+003,9.355022e+001
3.376887e+003,9.354416e+001
3.377370e+003,9.353687e+001
3.377852e+003,9.352998e+001
3.378334e+003,9.352480e+001
3.378816e+003,9.352177e+001
3.379298e+003,9.352023e+001
3.379780e+003,9.351871e+001
3.380262e+003,9.351534e+001
3.380745e+003,9.350857e+001
3.381227e+003,9.349774e+001
3.381709e+003,9.348337e+001
3.382191e+003,9.346699e+001
3.382673e+003,9.345058e+001
3.383155e+003,9.343610e+001
3.383637e+003,9.342469e+001
3.384120e+003,9.341644e+001
3.384602e+003,9.341023e+001
3.385084e+003,9.340433e+001
3.385566e+003,9.339663e+001
3.386048e+003,9.338573e+001
3.386530e+003,9.337105e+001
3.387012e+003,9.335325e+001
3.387494e+003,9.333372e+001
3.387977e+003,9.331424e+001
3.388459e+003,9.329629e+001
3.388941e+003,9.328070e+001
3.389423e+003,9.326753e+001
3.389905e+003,9.325626e+001
3.390387e+003,9.324634e+001
3.390869e+003,9.323756e+001
3.391352e+003,9.323029e+001
3.391834e+003,9.322531e+001
3.392316e+003,9.322356e+001
3.392798e+003,9.322557e+001
3.393280e+003,9.323107e+001
3.393762e+003,9.323907e+001
3.394244e+003,9.324802e+001
3.394727e+003,9.325639e+001
3.395209e+003,9.326295e+001
3.395691e+003,9.326735e+001
3.396173e+003,9.326984e+001
3.396655e+003,9.327119e+001
3.397137e+003,9.327225e+001
3.397619e+003,9.327362e+001
3.398102e+003,9.327549e+001
3.398583e+003,9.327762e+001
3.399066e+003,9.327943e+001
3.399548e+003,9.328031e+001
3.400030e+003,9.327980e+001
3.400512e+003,9.327776e+001
3.400994e+003,9.327431e+001
3.401477e+003,9.326991e+001
3.401958e+003,9.326517e+001
3.402441e+003,9.326075e+001
3.402923e+003,9.325716e+001
3.403405e+003,9.325465e+001
3.403887e+003,9.325313e+001
3.404369e+003,9.325243e+001
3.404851e+003,9.325233e+001
3.405333e+003,9.325304e+001
3.405816e+003,9.325526e+001
3.406298e+003,9.326033e+001
3.406780e+003,9.326991e+001
3.407262e+003,9.328575e+001
3.407744e+003,9.330917e+001
3.408226e+003,9.334094e+001
3.408708e+003,9.338113e+001
3.409191e+003,9.342941e+001
3.409673e+003,9.348531e+001
3.410155e+003,9.354837e+001
3.410637e+003,9.361816e+001
3.411119e+003,9.369400e+001
3.411601e+003,9.377472e+001
3.412083e+003,9.385851e+001
3.412566e+003,9.394308e+001
3.413048e+003,9.402620e+001
3.413530e+003,9.410634e+001
3.414012e+003,9.418306e+001
3.414494e+003,9.425713e+001
3.414976e+003,9.433027e+001
3.415458e+003,9.440426e+001
3.415940e+003,9.448039e+001
3.416423e+003,9.455889e+001
3.416905e+003,9.463892e+001
3.417387e+003,9.471899e+001
3.417869e+003,9.479745e+001
3.418351e+003,9.487314e+001
3.418833e+003,9.494549e+001
3.419315e+003,9.501442e+001
3.419798e+003,9.508025e+001
3.420280e+003,9.514322e+001
3.420762e+003,9.520353e+001
3.421244e+003,9.526125e+001
3.421726e+003,9.531661e+001
3.422208e+003,9.537006e+001
3.422690e+003,9.542216e+001
3.423173e+003,9.547341e+001
3.423655e+003,9.552401e+001
3.424137e+003,9.557369e+001
3.424619e+003,9.562177e+001
3.425101e+003,9.566745e+001
3.425583e+003,9.571009e+001
3.426065e+003,9.574940e+001
3.426548e+003,9.578558e+001
3.427030e+003,9.581908e+001
3.427512e+003,9.585043e+001
3.427994e+003,9.587997e+001
3.428476e+003,9.590804e+001
3.428958e+003,9.593482e+001
3.429440e+003,9.596066e+001
3.429923e+003,9.598600e+001
3.430405e+003,9.601134e+001
3.430887e+003,9.603690e+001
3.431369e+003,9.606264e+001
3.431851e+003,9.608791e+001
3.432333e+003,9.611205e+001
3.432815e+003,9.613440e+001
3.433297e+003,9.615491e+001
3.433780e+003,9.617413e+001
3.434262e+003,9.619301e+001
3.434744e+003,9.621255e+001
3.435226e+003,9.623335e+001
3.435708e+003,9.625520e+001
3.436190e+003,9.627737e+001
3.436672e+003,9.629879e+001
3.437155e+003,9.631870e+001
3.437637e+003,9.633687e+001
3.438119e+003,9.635371e+001
3.438601e+003,9.636993e+001
3.439083e+003,9.638631e+001
3.439565e+003,9.640315e+001
3.440047e+003,9.642039e+001
3.440530e+003,9.643768e+001
3.441012e+003,9.645488e+001
3.441494e+003,9.647214e+001
3.441976e+003,9.649007e+001
3.442458e+003,9.650931e+001
3.442940e+003,9.653019e+001
3.443422e+003,9.655240e+001
3.443905e+003,9.657511e+001
3.444387e+003,9.659721e+001
3.444869e+003,9.661787e+001
3.445351e+003,9.663698e+001
3.445833e+003,9.665541e+001
3.446315e+003,9.667442e+001
3.446797e+003,9.669536e+001
3.447280e+003,9.671896e+001
3.447762e+003,9.674504e+001
3.448244e+003,9.677249e+001
3.448726e+003,9.679991e+001
3.449208e+003,9.682598e+001
3.449690e+003,9.685004e+001
3.450172e+003,9.687202e+001
3.450654e+003,9.689241e+001
3.451136e+003,9.691183e+001
3.451619e+003,9.693082e+001
3.452101e+003,9.694977e+001
3.452583e+003,9.696891e+001
3.453065e+003,9.698862e+001
3.453547e+003,9.700936e+001
3.454029e+003,9.703158e+001
3.454511e+003,9.705553e+001
3.454994e+003,9.708086e+001
3.455476e+003,9.710667e+001
3.455958e+003,9.713164e+001
3.456440e+003,9.715447e+001
3.456922e+003,9.717436e+001
3.457404e+003,9.719133e+001
3.457886e+003,9.720634e+001
3.458369e+003,9.722084e+001
3.458851e+003,9.723648e+001
3.459333e+003,9.725441e+001
3.459815e+003,9.727507e+001
3.460297e+003,9.729798e+001
3.460779e+003,9.732198e+001
3.461261e+003,9.734555e+001
3.461744e+003,9.736722e+001
3.462226e+003,9.738586e+001
3.462708e+003,9.740102e+001
3.463190e+003,9.741302e+001
3.463672e+003,9.742297e+001
3.464154e+003,9.743234e+001
3.464636e+003,9.744288e+001
3.465119e+003,9.745592e+001
3.465601e+003,9.747197e+001
3.466083e+003,9.749065e+001
3.466565e+003,9.751070e+001
3.467047e+003,9.753037e+001
3.467529e+003,9.754817e+001
3.468011e+003,9.756343e+001
3.468493e+003,9.757650e+001
3.468976e+003,9.758852e+001
3.469458e+003,9.760095e+001
3.469940e+003,9.761488e+001
3.470422e+003,9.763034e+001
3.470904e+003,9.764653e+001
3.471386e+003,9.766209e+001
3.471868e+003,9.767585e+001
3.472351e+003,9.768749e+001
3.472833e+003,9.769793e+001
3.473315e+003,9.770898e+001
3.473797e+003,9.772269e+001
3.474279e+003,9.774048e+001
3.474761e+003,9.776249e+001
3.475243e+003,9.778741e+001
3.475726e+003,9.781282e+001
3.476208e+003,9.783597e+001
3.476690e+003,9.785460e+001
3.477172e+003,9.786737e+001
3.477654e+003,9.787419e+001
3.478136e+003,9.787598e+001
3.478618e+003,9.787433e+001
3.479101e+003,9.787114e+001
3.479583e+003,9.786832e+001
3.480065e+003,9.786759e+001
3.480547e+003,9.787037e+001
3.481029e+003,9.787743e+001
3.481511e+003,9.788888e+001
3.481993e+003,9.790379e+001
3.482476e+003,9.792044e+001
3.482958e+003,9.793665e+001
3.483440e+003,9.795033e+001
3.483922e+003,9.796014e+001
3.484404e+003,9.796591e+001
3.484886e+003,9.796859e+001
3.485368e+003,9.796997e+001
3.485850e+003,9.797211e+001
3.486333e+003,9.797666e+001
3.486815e+003,9.798450e+001
3.487297e+003,9.799577e+001
3.487779e+003,9.801001e+001
3.488261e+003,9.802667e+001
3.488743e+003,9.804533e+001
3.489225e+003,9.806584e+001
3.489708e+003,9.808809e+001
3.490190e+003,9.811176e+001
3.490672e+003,9.813593e+001
3.491154e+003,9.815915e+001
3.491636e+003,9.817969e+001
3.492118e+003,9.819591e+001
3.492600e+003,9.820667e+001
3.493083e+003,9.821205e+001
3.493565e+003,9.821304e+001
3.494047e+003,9.821158e+001
3.494529e+003,9.820998e+001
3.495011e+003,9.821043e+001
3.495493e+003,9.821442e+001
3.495975e+003,9.822260e+001
3.496458e+003,9.823444e+001
3.496939e+003,9.824870e+001
3.497422e+003,9.826359e+001
3.497904e+003,9.827737e+001
3.498386e+003,9.828860e+001
3.498868e+003,9.829656e+001
3.499350e+003,9.830125e+001
3.499833e+003,9.830333e+001
3.500314e+003,9.830405e+001
3.500797e+003,9.830486e+001
3.501279e+003,9.830723e+001
3.501761e+003,9.831245e+001
3.502243e+003,9.832144e+001
3.502725e+003,9.833454e+001
3.503207e+003,9.835149e+001
3.503689e+003,9.837131e+001
3.504172e+003,9.839246e+001
3.504654e+003,9.841308e+001
3.505136e+003,9.843138e+001
3.505618e+003,9.844595e+001
3.506100e+003,9.845604e+001
3.506582e+003,9.846182e+001
3.507064e+003,9.846419e+001
3.507547e+003,9.846450e+001
3.508029e+003,9.846424e+001
3.508511e+003,9.846462e+001
3.508993e+003,9.846649e+001
3.509475e+003,9.847027e+001
3.509957e+003,9.847614e+001
3.510439e+003,9.848422e+001
3.510922e+003,9.849452e+001
3.511404e+003,9.850708e+001
3.511886e+003,9.852152e+001
3.512368e+003,9.853708e+001
3.512850e+003,9.855243e+001
3.513332e+003,9.856617e+001
3.513814e+003,9.857709e+001
3.514296e+003,9.858472e+001
3.514779e+003,9.858955e+001
3.515261e+003,9.859299e+001
3.515743e+003,9.859703e+001
3.516225e+003,9.860349e+001
3.516707e+003,9.861351e+001
3.517189e+003,9.862711e+001
3.517671e+003,9.864316e+001
3.518154e+003,9.865978e+001
3.518636e+003,9.867473e+001
3.519118e+003,9.868616e+001
3.519600e+003,9.869296e+001
3.520082e+003,9.869502e+001
3.520564e+003,9.869329e+001
3.521046e+003,9.868942e+001
3.521529e+003,9.868553e+001
3.522011e+003,9.868367e+001
3.522493e+003,9.868534e+001
3.522975e+003,9.869113e+001
3.523457e+003,9.870042e+001
3.523939e+003,9.871173e+001
3.524421e+003,9.872289e+001
3.524904e+003,9.873196e+001
3.525386e+003,9.873770e+001
3.525868e+003,9.874007e+001
3.526350e+003,9.874017e+001
3.526832e+003,9.873994e+001
3.527314e+003,9.874141e+001
3.527796e+003,9.874609e+001
3.528279e+003,9.875462e+001
3.528761e+003,9.876661e+001
3.529243e+003,9.878109e+001
3.529725e+003,9.879709e+001
3.530207e+003,9.881384e+001
3.530689e+003,9.883091e+001
3.531171e+003,9.884801e+001
3.531653e+003,9.886467e+001
3.532135e+003,9.887995e+001
3.532618e+003,9.889270e+001
3.533100e+003,9.890184e+001
3.533582e+003,9.890691e+001
3.534064e+003,9.890845e+001
3.534546e+003,9.890816e+001
3.535028e+003,9.890835e+001
3.535510e+003,9.891144e+001
3.535993e+003,9.891911e+001
3.536475e+003,9.893192e+001
3.536957e+003,9.894927e+001
3.537439e+003,9.896955e+001
3.537921e+003,9.899091e+001
3.538403e+003,9.901159e+001
3.538885e+003,9.903011e+001
