3.301674e+003,8.890009e+001
3.302156e+003,8.890508e+001
3.302638e+003,8.890981e+001
3.303121e+003,8.891530e+001
3.303603e+003,8.892274e+001
3.304085e+003,8.893275e+001
3.304567e+003,8.894507e+001
3.305049e+003,8.895866e+001
3.305531e+003,8.897191e+001
3.306013e+003,8.898343e+001
3.306495e+003,8.899271e+001
3.306978e+003,8.900026e+001
3.307460e+003,8.900758e+001
3.307942e+003,8.901654e+001
3.308424e+003,8.902859e+001
3.308906e+003,8.904439e+001
3.309388e+003,8.906355e+001
3.309870e+003,8.908485e+001
3.310353e+003,8.910704e+001
3.310835e+003,8.912913e+001
3.311317e+003,8.915070e+001
3.311799e+003,8.917181e+001
3.312281e+003,8.919267e+001
3.312763e+003,8.921336e+001
3.313245e+003,8.923354e+001
3.313728e+003,8.925286e+001
3.314210e+003,8.927109e+001
3.314692e+003,8.928854e+001
3.315174e+003,8.930605e+001
3.315656e+003,8.932480e+001
3.316138e+003,8.934577e+001
3.316620e+003,8.936936e+001
3.317103e+003,8.939509e+001
3.317584e+003,8.942180e+001
3.318067e+003,8.944815e+001
3.318549e+003,8.947314e+001
3.319031e+003,8.949648e+001
3.319513e+003,8.951878e+001
3.319995e+003,8.954107e+001
3.320478e+003,8.956437e+001
3.320959e+003,8.958920e+001
3.321442e+003,8.961533e+001
3.321924e+003,8.964192e+001
3.322406e+003,8.966791e+001
3.322888e+003,8.969243e+001
3.323370e+003,8.971518e+001
3.323852e+003,8.973646e+001
3.324334e+003,8.975717e+001
3.324817e+003,8.977815e+001
3.325299e+003,8.980016e+001
3.325781e+003,8.982357e+001
3.326263e+003,8.984840e+001
3.326745e+003,8.987431e+001
3.327227e+003,8.990079e+001
3.327709e+003,8.992729e+001
3.328192e+003,8.995320e+001
3.328674e+003,8.997793e+001
3.329156e+003,9.000082e+001
3.329638e+003,9.002145e+001
3.330120e+003,9.003963e+001
3.330602e+003,9.005547e+001
3.331084e+003,9.006949e+001
3.331567e+003,9.008243e+001
3.332049e+003,9.009512e+001
3.332531e+003,9.010829e+001
3.333013e+003,9.012223e+001
3.333495e+003,9.013700e+001
3.333977e+003,9.015232e+001
3.334459e+003,9.016787e+001
3.334941e+003,9.018333e+001
3.335424e+003,9.019861e+001
3.335906e+003,9.021380e+001
3.336388e+003,9.022905e+001
3.336870e+003,9.024455e+001
3.337352e+003,9.026016e+001
3.337834e+003,9.027574e+001
3.338316e+003,9.029082e+001
3.338799e+003,9.030501e+001
3.339281e+003,9.031799e+001
3.339763e+003,9.032983e+001
3.340245e+003,9.034088e+001
3.340727e+003,9.035172e+001
3.341209e+003,9.036308e+001
3.341691e+003,9.037547e+001
3.342174e+003,9.038908e+001
3.342656e+003,9.040367e+001
3.343138e+003,9.041862e+001
3.343620e+003,9.043317e+001
3.344102e+003,9.044662e+001
3.344584e+003,9.045861e+001
3.345066e+003,9.046915e+001
3.345549e+003,9.047878e+001
3.346031e+003,9.048811e+001
3.346513e+003,9.049779e+001
3.346995e+003,9.050824e+001
3.347477e+003,9.051962e+001
3.347959e+003,9.053185e+001
3.348441e+003,9.054474e+001
3.348924e+003,9.055804e+001
3.349406e+003,9.057165e+001
3.349888e+003,9.058544e+001
3.350370e+003,9.059932e+001
3.350852e+003,9.061327e+001
3.351334e+003,9.062730e+001
3.351816e+003,9.064159e+001
3.352298e+003,9.065649e+001
3.352781e+003,9.067253e+001
3.353263e+003,9.069025e+001
3.353745e+003,9.070991e+001
3.354227e+003,9.073139e+001
3.354709e+003,9.075405e+001
3.355191e+003,9.077684e+001
3.355673e+003,9.079881e+001
3.356156e+003,9.081929e+001
3.356638e+003,9.083817e+001
3.357120e+003,9.085600e+001
3.357602e+003,9.087363e+001
3.358084e+003,9.089194e+001
3.358566e+003,9.091132e+001
3.359048e+003,9.093171e+001
3.359531e+003,9.095256e+001
3.360013e+003,9.097337e+001
3.360495e+003,9.099392e+001
3.360977e+003,9.101447e+001
3.361459e+003,9.103590e+001
3.361941e+003,9.105914e+001
3.362423e+003,9.108479e+001
3.362906e+003,9.111286e+001
3.363388e+003,9.114256e+001
3.363870e+003,9.117245e+001
3.364352e+003,9.120100e+001
3.364834e+003,9.122683e+001
3.365316e+003,9.124911e+001
3.365798e+003,9.126761e+001
3.366281e+003,9.128249e+001
3.366763e+003,9.129427e+001
3.367245e+003,9.130346e+001
3.367727e+003,9.131064e+001
3.368209e+003,9.131643e+001
3.368691e+003,9.132169e+001
3.369173e+003,9.132719e+001
3.369655e+003,9.133363e+001
3.370137e+003,9.134132e+001
3.370620e+003,9.134993e+001
3.371102e+003,9.135848e+001
3.371584e+003,9.136568e+001
3.372066e+003,9.137019e+001
3.372548e+003,9.137123e+001
3.373030e+003,9.136885e+001
3.373512e+003,9.136403e+001
3.373995e+003,9.135831e+001
3.374477e+003,9.135346e+001
3.374959e+003,9.135095e+001
3.375441e+003,9.135155e+001
3.375923e+003,9.135517e+001
3.376405e+003,9.136106e+001
3.376887e+003,9.136792e+001
3.377370e+003,9.137431e+001
3.377852e+003,9.137877e+001
3.378334e+003,9.138023e+001
3.378816e+003,9.137793e+001
3.379298e+003,9.137173e+001
3.379780e+003,9.136193e+001
3.380262e+003,9.134946e+001
3.380745e+003,9.133549e+001
3.381227e+003,9.132138e+001
3.381709e+003,9.130821e+001
3.382191e+003,9.129656e+001
3.382673e+003,9.128632e+001
3.383155e+003,9.127681e+001
3.383637e+003,9.126700e+001
3.384120e+003,9.125589e+001
3.384602e+003,9.124293e+001
3.385084e+003,9.122809e+001
3.385566e+003,9.121200e+001
3.386048e+003,9.119566e+001
3.386530e+003,9.117999e+001
3.387012e+003,9.116578e+001
3.387494e+003,9.115333e+001
3.387977e+003,9.114250e+001
3.388459e+003,9.113297e+001
3.388941e+003,9.112422e+001
3.389423e+003,9.111590e+001
3.389905e+003,9.110790e+001
3.390387e+003,9.110033e+001
3.390869e+003,9.109358e+001
3.391352e+003,9.108804e+001
3.391834e+003,9.108420e+001
3.392316e+003,9.108242e+001
3.392798e+003,9.108294e+001
3.393280e+003,9.108566e+001
3.393762e+003,9.109032e+001
3.394244e+003,9.109630e+001
3.394727e+003,9.110275e+001
3.395209e+003,9.110880e+001
3.395691e+003,9.111356e+001
3.396173e+003,9.111645e+001
3.396655e+003,9.111730e+001
3.397137e+003,9.111629e+001
3.397619e+003,9.111411e+001
3.398102e+003,9.111156e+001
3.398583e+003,9.110942e+001
3.399066e+003,9.110820e+001
3.399548e+003,9.110801e+001
3.400030e+003,9.110862e+001
3.400512e+003,9.110963e+001
3.400994e+003,9.111065e+001
3.401477e+003,9.111165e+001
3.401958e+003,9.111296e+001
3.402441e+003,9.111536e+001
3.402923e+003,9.111970e+001
3.403405e+003,9.112677e+001
3.403887e+003,9.113701e+001
3.404369e+003,9.115044e+001
3.404851e+003,9.116685e+001
3.405333e+003,9.118607e+001
3.405816e+003,9.120823e+001
3.406298e+003,9.123393e+001
3.406780e+003,9.126403e+001
3.407262e+003,9.129940e+001
3.407744e+003,9.134057e+001
3.408226e+003,9.138734e+001
3.408708e+003,9.143890e+001
3.409191e+003,9.149412e+001
3.409673e+003,9.155191e+001
3.410155e+003,9.161185e+001
3.410637e+003,9.167413e+001
3.411119e+003,9.173954e+001
3.411601e+003,9.180901e+001
3.412083e+003,9.188296e+001
3.412566e+003,9.196114e+001
3.413048e+003,9.204250e+001
3.413530e+003,9.212565e+001
3.414012e+003,9.220919e+001
3.414494e+003,9.229236e+001
3.414976e+003,9.237511e+001
3.415458e+003,9.245795e+001
3.415940e+003,9.254152e+001
3.416423e+003,9.262617e+001
3.416905e+003,9.271160e+001
3.417387e+003,9.279691e+001
3.417869e+003,9.288087e+001
3.418351e+003,9.296224e+001
3.418833e+003,9.304024e+001
3.419315e+003,9.311462e+001
3.419798e+003,9.318559e+001
3.420280e+003,9.325354e+001
3.420762e+003,9.331887e+001
3.421244e+003,9.338171e+001
3.421726e+003,9.344212e+001
3.422208e+003,9.350008e+001
3.422690e+003,9.355570e+001
3.423173e+003,9.360917e+001
3.423655e+003,9.366071e+001
3.424137e+003,9.371035e+001
3.424619e+003,9.375768e+001
3.425101e+003,9.380203e+001
3.425583e+003,9.384258e+001
3.426065e+003,9.387876e+001
3.426548e+003,9.391067e+001
3.427030e+003,9.393916e+001
3.427512e+003,9.396576e+001
3.427994e+003,9.399215e+001
3.428476e+003,9.401974e+001
3.428958e+003,9.404910e+001
3.429440e+003,9.407973e+001
3.429923e+003,9.411023e+001
3.430405e+003,9.413881e+001
3.430887e+003,9.416379e+001
3.431369e+003,9.418443e+001
3.431851e+003,9.420097e+001
3.432333e+003,9.421486e+001
3.432815e+003,9.422813e+001
3.433297e+003,9.424299e+001
3.433780e+003,9.426109e+001
3.434262e+003,9.428328e+001
3.434744e+003,9.430922e+001
3.435226e+003,9.433765e+001
3.435708e+003,9.436682e+001
3.436190e+003,9.439487e+001
3.436672e+003,9.442055e+001
3.437155e+003,9.444342e+001
3.437637e+003,9.446400e+001
3.438119e+003,9.448351e+001
3.438601e+003,9.450356e+001
3.439083e+003,9.452551e+001
3.439565e+003,9.455010e+001
3.440047e+003,9.457725e+001
3.440530e+003,9.460596e+001
3.441012e+003,9.463483e+001
3.441494e+003,9.466240e+001
3.441976e+003,9.468758e+001
3.442458e+003,9.471008e+001
3.442940e+003,9.473029e+001
3.443422e+003,9.474908e+001
3.443905e+003,9.476756e+001
3.444387e+003,9.478661e+001
3.444869e+003,9.480669e+001
3.445351e+003,9.482787e+001
3.445833e+003,9.484998e+001
3.446315e+003,9.487284e+001
3.446797e+003,9.489633e+001
3.447280e+003,9.492055e+001
3.447762e+003,9.494559e+001
3.448244e+003,9.497142e+001
3.448726e+003,9.499770e+001
3.449208e+003,9.502377e+001
3.449690e+003,9.504875e+001
3.450172e+003,9.507175e+001
3.450654e+003,9.509222e+001
3.451136e+003,9.510995e+001
3.451619e+003,9.512537e+001
3.452101e+003,9.513931e+001
3.452583e+003,9.515284e+001
3.453065e+003,9.516713e+001
3.453547e+003,9.518310e+001
3.454029e+003,9.520134e+001
3.454511e+003,9.522217e+001
3.454994e+003,9.524541e+001
3.455476e+003,9.527062e+001
3.455958e+003,9.529709e+001
3.456440e+003,9.532404e+001
3.456922e+003,9.535063e+001
3.457404e+003,9.537633e+001
3.457886e+003,9.540068e+001
3.458369e+003,9.542367e+001
3.458851e+003,9.544540e+001
3.459333e+003,9.546605e+001
3.459815e+003,9.548585e+001
3.460297e+003,9.550475e+001
3.460779e+003,9.552277e+001
3.461261e+003,9.553982e+001
3.461744e+003,9.555603e+001
3.462226e+003,9.557185e+001
3.462708e+003,9.558797e+001
3.463190e+003,9.560535e+001
3.463672e+003,9.562475e+001
3.464154e+003,9.564668e+001
3.464636e+003,9.567110e+001
3.465119e+003,9.569754e+001
3.465601e+003,9.572507e+001
3.466083e+003,9.575258e+001
3.466565e+003,9.577917e+001
3.467047e+003,9.580415e+001
3.467529e+003,9.582725e+001
3.468011e+003,9.584853e+001
3.468493e+003,9.586819e+001
3.468976e+003,9.588663e+001
3.469458e+003,9.590415e+001
3.469940e+003,9.592108e+001
3.470422e+003,9.593766e+001
3.470904e+003,9.595403e+001
3.471386e+003,9.597019e+001
3.471868e+003,9.598594e+001
3.472351e+003,9.600089e+001
3.472833e+003,9.601469e+001
3.473315e+003,9.602686e+001
3.473797e+003,9.603731e+001
3.474279e+003,9.604622e+001
3.474761e+003,9.605415e+001
3.475243e+003,9.606200e+001
3.475726e+003,9.607074e+001
3.476208e+003,9.608134e+001
3.476690e+003,9.609444e+001
3.477172e+003,9.611038e+001
3.477654e+003,9.612904e+001
3.478136e+003,9.614983e+001
3.478618e+003,9.617165e+001
3.479101e+003,9.619309e+001
3.479583e+003,9.621251e+001
3.480065e+003,9.622842e+001
3.480547e+003,9.623996e+001
3.481029e+003,9.624737e+001
3.481511e+003,9.625199e+001
3.481993e+003,9.625640e+001
3.482476e+003,9.626350e+001
3.482958e+003,9.627586e+001
3.483440e+003,9.629472e+001
3.483922e+003,9.631943e+001
3.484404e+003,9.634745e+001
3.484886e+003,9.637511e+001
3.485368e+003,9.639857e+001
3.485850e+003,9.641490e+001
3.486333e+003,9.642311e+001
3.486815e+003,9.642423e+001
3.487297e+003,9.642088e+001
3.487779e+003,9.641630e+001
3.488261e+003,9.641339e+001
3.488743e+003,9.641380e+001
3.489225e+003,9.641787e+001
3.489708e+003,9.642473e+001
3.490190e+003,9.643326e+001
3.490672e+003,9.644254e+001
3.491154e+003,9.645229e+001
3.491636e+003,9.646272e+001
3.492118e+003,9.647430e+001
3.492600e+003,9.648720e+001
3.493083e+003,9.650098e+001
3.493565e+003,9.651468e+001
3.494047e+003,9.652701e+001
3.494529e+003,9.653700e+001
3.495011e+003,9.654424e+001
3.495493e+003,9.654917e+001
3.495975e+003,9.655277e+001
3.496458e+003,9.655649e+001
3.496939e+003,9.656146e+001
3.497422e+003,9.656843e+001
3.497904e+003,9.657745e+001
3.498386e+003,9.658805e+001
3.498868e+003,9.659934e+001
3.499350e+003,9.661035e+001
3.499833e+003,9.662028e+001
3.500314e+003,9.662864e+001
3.500797e+003,9.663542e+001
3.501279e+003,9.664117e+001
3.501761e+003,9.664690e+001
3.502243e+003,9.665390e+001
3.502725e+003,9.666348e+001
3.503207e+003,9.667653e+001
3.503689e+003,9.669326e+001
3.504172e+003,9.671308e+001
3.504654e+003,9.673461e+001
3.505136e+003,9.675624e+001
3.505618e+003,9.677642e+001
3.506100e+003,9.679412e+001
3.506582e+003,9.680899e+001
3.507064e+003,9.682125e+001
3.507547e+003,9.683148e+001
3.508029e+003,9.684013e+001
3.508511e+003,9.684736e+001
3.508993e+003,9.685310e+001
3.509475e+003,9.685719e+001
3.509957e+003,9.685978e+001
3.510439e+003,9.686151e+001
3.510922e+003,9.686354e+001
3.511404e+003,9.686716e+001
3.511886e+003,9.687346e+001
3.512368e+003,9.688281e+001
3.512850e+003,9.689470e+001
3.513332e+003,9.690787e+001
3.513814e+003,9.692068e+001
3.514296e+003,9.693182e+001
3.514779e+003,9.694057e+001
3.515261e+003,9.694706e+001
3.515743e+003,9.695210e+001
3.516225e+003,9.695678e+001
3.516707e+003,9.696201e+001
3.517189e+003,9.696834e+001
3.517671e+003,9.697578e+001
3.518154e+003,9.698415e+001
3.518636e+003,9.699324e+001
3.519118e+003,9.700320e+001
3.519600e+003,9.701447e+001
3.520082e+003,9.702750e+001
3.520564e+003,9.704263e+001
3.521046e+003,9.705957e+001
3.521529e+003,9.707752e+001
3.522011e+003,9.709515e+001
3.522493e+003,9.711115e+001
3.522975e+003,9.712466e+001
3.523457e+003,9.713551e+001
3.523939e+003,9.714442e+001
3.524421e+003,9.715264e+001
3.524904e+003,9.716156e+001
3.525386e+003,9.717207e+001
3.525868e+003,9.718443e+001
3.526350e+003,9.719807e+001
3.526832e+003,9.721193e+001
3.527314e+003,9.722485e+001
3.527796e+003,9.723596e+001
3.528279e+003,9.724499e+001
3.528761e+003,9.725220e+001
3.529243e+003,9.725836e+001
3.529725e+003,9.726428e+001
3.530207e+003,9.727068e+001
3.530689e+003,9.727810e+001
3.531171e+003,9.728676e+001
3.531653e+003,9.729685e+001
3.532135e+003,9.730850e+001
3.532618e+003,9.732173e+001
3.533100e+003,9.733646e+001
3.533582e+003,9.735216e+001
3.534064e+003,9.736792e+001
3.534546e+003,9.738245e+001
3.535028e+003,9.739442e+001
3.535510e+003,9.740286e+001
3.535993e+003,9.740755e+001
3.536475e+003,9.740928e+001
3.536957e+003,9.740973e+001
3.537439e+003,9.741095e+001
3.537921e+003,9.741492e+001
3.538403e+003,9.742284e+001
3.538885e+003,9.743504e+001
