3.301674e+003,9.041544e+001
3.302156e+003,9.041660e+001
3.302638e+003,9.042081e+001
3.303121e+003,9.042838e+001
3.303603e+003,9.043856e+001
3.304085e+003,9.045009e+001
3.304567e+003,9.046159e+001
3.305049e+003,9.047218e+001
3.305531e+003,9.048177e+001
3.306013e+003,9.049102e+001
3.306495e+003,9.050097e+001
3.306978e+003,9.051243e+001
3.307460e+003,9.052554e+001
3.307942e+003,9.053964e+001
3.308424e+003,9.055350e+001
3.308906e+003,9.056573e+001
3.309388e+003,9.057539e+001
3.309870e+003,9.058231e+001
3.310353e+003,9.058727e+001
3.310835e+003,9.059158e+001
3.311317e+003,9.059689e+001
3.311799e+003,9.060464e+001
3.312281e+003,9.061586e+001
3.312763e+003,9.063106e+001
3.313245e+003,9.065022e+001
3.313728e+003,9.067294e+001
3.314210e+003,9.069839e+001
3.314692e+003,9.072553e+001
3.315174e+003,9.075304e+001
3.315656e+003,9.077970e+001
3.316138e+003,9.080456e+001
3.316620e+003,9.082733e+001
3.317103e+003,9.084850e+001
3.317584e+003,9.086914e+001
3.318067e+003,9.089059e+001
3.318549e+003,9.091393e+001
3.319031e+003,9.093954e+001
3.319513e+003,9.096695e+001
3.319995e+003,9.099512e+001
3.320478e+003,9.102267e+001
3.320959e+003,9.104871e+001
3.321442e+003,9.107281e+001
3.321924e+003,9.109534e+001
3.322406e+003,9.111700e+001
3.322888e+003,9.113845e+001
3.323370e+003,9.116005e+001
3.323852e+003,9.118168e+001
3.324334e+003,9.120294e+001
3.324817e+003,9.122353e+001
3.325299e+003,9.124348e+001
3.325781e+003,9.126305e+001
3.326263e+003,9.128275e+001
3.326745e+003,9.130296e+001
3.327227e+003,9.132366e+001
3.327709e+003,9.134444e+001
3.328192e+003,9.136474e+001
3.328674e+003,9.138405e+001
3.329156e+003,9.140243e+001
3.329638e+003,9.142025e+001
3.330120e+003,9.143818e+001
3.330602e+003,9.145676e+001
3.331084e+003,9.147609e+001
3.331567e+003,9.149576e+001
3.332049e+003,9.151506e+001
3.332531e+003,9.153331e+001
3.333013e+003,9.155016e+001
3.333495e+003,9.156582e+001
3.333977e+003,9.158089e+001
3.334459e+003,9.159595e+001
3.334941e+003,9.161132e+001
3.335424e+003,9.162682e+001
3.335906e+003,9.164182e+001
3.336388e+003,9.165564e+001
3.336870e+003,9.166774e+001
3.337352e+003,9.167809e+001
3.337834e+003,9.168698e+001
3.338316e+003,9.169500e+001
3.338799e+003,9.170267e+001
3.339281e+003,9.171024e+001
3.339763e+003,9.171782e+001
3.340245e+003,9.172545e+001
3.340727e+003,9.173326e+001
3.341209e+003,9.174168e+001
3.341691e+003,9.175111e+001
3.342174e+003,9.176183e+001
3.342656e+003,9.177378e+001
3.343138e+003,9.178648e+001
3.343620e+003,9.179916e+001
3.344102e+003,9.181118e+001
3.344584e+003,9.182225e+001
3.345066e+003,9.183261e+001
3.345549e+003,9.184296e+001
3.346031e+003,9.185406e+001
3.346513e+003,9.186637e+001
3.346995e+003,9.187984e+001
3.347477e+003,9.189407e+001
3.347959e+003,9.190838e+001
3.348441e+003,9.192236e+001
3.348924e+003,9.193597e+001
3.349406e+003,9.194961e+001
3.349888e+003,9.196373e+001
3.350370e+003,9.197854e+001
3.350852e+003,9.199382e+001
3.351334e+003,9.200886e+001
3.351816e+003,9.202279e+001
3.352298e+003,9.203502e+001
3.352781e+003,9.204561e+001
3.353263e+003,9.205542e+001
3.353745e+003,9.206568e+001
3.354227e+003,9.207789e+001
3.354709e+003,9.209300e+001
3.355191e+003,9.211134e+001
3.355673e+003,9.213251e+001
3.356156e+003,9.215569e+001
3.356638e+003,9.217982e+001
3.357120e+003,9.220409e+001
3.357602e+003,9.222786e+001
3.358084e+003,9.225064e+001
3.358566e+003,9.227213e+001
3.359048e+003,9.229197e+001
3.359531e+003,9.230983e+001
3.360013e+003,9.232564e+001
3.360495e+003,9.233955e+001
3.360977e+003,9.235213e+001
3.361459e+003,9.236408e+001
3.361941e+003,9.237623e+001
3.362423e+003,9.238931e+001
3.362906e+003,9.240369e+001
3.363388e+003,9.241953e+001
3.363870e+003,9.243694e+001
3.364352e+003,9.245575e+001
3.364834e+003,9.247594e+001
3.365316e+003,9.249728e+001
3.365798e+003,9.251926e+001
3.366281e+003,9.254121e+001
3.366763e+003,9.256217e+001
3.367245e+003,9.258127e+001
3.367727e+003,9.259785e+001
3.368209e+003,9.261167e+001
3.368691e+003,9.262309e+001
3.369173e+003,9.263268e+001
3.369655e+003,9.264116e+001
3.370137e+003,9.264906e+001
3.370620e+003,9.265656e+001
3.371102e+003,9.266352e+001
3.371584e+003,9.266965e+001
3.372066e+003,9.267471e+001
3.372548e+003,9.267844e+001
3.373030e+003,9.268086e+001
3.373512e+003,9.268198e+001
3.373995e+003,9.268177e+001
3.374477e+003,9.268027e+001
3.374959e+003,9.267742e+001
3.375441e+003,9.267337e+001
3.375923e+003,9.266846e+001
3.376405e+003,9.266310e+001
3.376887e+003,9.265776e+001
3.377370e+003,9.265258e+001
3.377852e+003,9.264745e+001
3.378334e+003,9.264188e+001
3.378816e+003,9.263519e+001
3.379298e+003,9.262680e+001
3.379780e+003,9.261639e+001
3.380262e+003,9.260406e+001
3.380745e+003,9.259018e+001
3.381227e+003,9.257519e+001
3.381709e+003,9.255939e+001
3.382191e+003,9.254298e+001
3.382673e+003,9.252584e+001
3.383155e+003,9.250798e+001
3.383637e+003,9.248962e+001
3.384120e+003,9.247121e+001
3.384602e+003,9.245346e+001
3.385084e+003,9.243713e+001
3.385566e+003,9.242271e+001
3.386048e+003,9.241039e+001
3.386530e+003,9.239980e+001
3.387012e+003,9.239043e+001
3.387494e+003,9.238160e+001
3.387977e+003,9.237284e+001
3.388459e+003,9.236391e+001
3.388941e+003,9.235479e+001
3.389423e+003,9.234574e+001
3.389905e+003,9.233716e+001
3.390387e+003,9.232950e+001
3.390869e+003,9.232329e+001
3.391352e+003,9.231902e+001
3.391834e+003,9.231699e+001
3.392316e+003,9.231729e+001
3.392798e+003,9.231963e+001
3.393280e+003,9.232333e+001
3.393762e+003,9.232752e+001
3.394244e+003,9.233132e+001
3.394727e+003,9.233400e+001
3.395209e+003,9.233526e+001
3.395691e+003,9.233516e+001
3.396173e+003,9.233405e+001
3.396655e+003,9.233230e+001
3.397137e+003,9.233021e+001
3.397619e+003,9.232787e+001
3.398102e+003,9.232519e+001
3.398583e+003,9.232215e+001
3.399066e+003,9.231876e+001
3.399548e+003,9.231534e+001
3.400030e+003,9.231226e+001
3.400512e+003,9.231001e+001
3.400994e+003,9.230891e+001
3.401477e+003,9.230927e+001
3.401958e+003,9.231107e+001
3.402441e+003,9.231435e+001
3.402923e+003,9.231903e+001
3.403405e+003,9.232506e+001
3.403887e+003,9.233243e+001
3.404369e+003,9.234121e+001
3.404851e+003,9.235161e+001
3.405333e+003,9.236397e+001
3.405816e+003,9.237893e+001
3.406298e+003,9.239734e+001
3.406780e+003,9.242004e+001
3.407262e+003,9.244781e+001
3.407744e+003,9.248096e+001
3.408226e+003,9.251925e+001
3.408708e+003,9.256210e+001
3.409191e+003,9.260870e+001
3.409673e+003,9.265858e+001
3.410155e+003,9.271178e+001
3.410637e+003,9.276892e+001
3.411119e+003,9.283094e+001
3.411601e+003,9.289864e+001
3.412083e+003,9.297218e+001
3.412566e+003,9.305087e+001
3.413048e+003,9.313326e+001
3.413530e+003,9.321751e+001
3.414012e+003,9.330202e+001
3.414494e+003,9.338559e+001
3.414976e+003,9.346779e+001
3.415458e+003,9.354861e+001
3.415940e+003,9.362820e+001
3.416423e+003,9.370650e+001
3.416905e+003,9.378307e+001
3.417387e+003,9.385744e+001
3.417869e+003,9.392924e+001
3.418351e+003,9.399859e+001
3.418833e+003,9.406609e+001
3.419315e+003,9.413268e+001
3.419798e+003,9.419917e+001
3.420280e+003,9.426584e+001
3.420762e+003,9.433215e+001
3.421244e+003,9.439684e+001
3.421726e+003,9.445835e+001
3.422208e+003,9.451533e+001
3.422690e+003,9.456704e+001
3.423173e+003,9.461358e+001
3.423655e+003,9.465571e+001
3.424137e+003,9.469459e+001
3.424619e+003,9.473118e+001
3.425101e+003,9.476607e+001
3.425583e+003,9.479945e+001
3.426065e+003,9.483121e+001
3.426548e+003,9.486121e+001
3.427030e+003,9.488951e+001
3.427512e+003,9.491637e+001
3.427994e+003,9.494228e+001
3.428476e+003,9.496762e+001
3.428958e+003,9.499262e+001
3.429440e+003,9.501716e+001
3.429923e+003,9.504096e+001
3.430405e+003,9.506379e+001
3.430887e+003,9.508556e+001
3.431369e+003,9.510649e+001
3.431851e+003,9.512711e+001
3.432333e+003,9.514791e+001
3.432815e+003,9.516929e+001
3.433297e+003,9.519122e+001
3.433780e+003,9.521323e+001
3.434262e+003,9.523464e+001
3.434744e+003,9.525469e+001
3.435226e+003,9.527284e+001
3.435708e+003,9.528902e+001
3.436190e+003,9.530367e+001
3.436672e+003,9.531754e+001
3.437155e+003,9.533147e+001
3.437637e+003,9.534604e+001
3.438119e+003,9.536149e+001
3.438601e+003,9.537765e+001
3.439083e+003,9.539404e+001
3.439565e+003,9.541022e+001
3.440047e+003,9.542602e+001
3.440530e+003,9.544150e+001
3.441012e+003,9.545703e+001
3.441494e+003,9.547308e+001
3.441976e+003,9.548988e+001
3.442458e+003,9.550723e+001
3.442940e+003,9.552463e+001
3.443422e+003,9.554140e+001
3.443905e+003,9.555695e+001
3.444387e+003,9.557108e+001
3.444869e+003,9.558404e+001
3.445351e+003,9.559657e+001
3.445833e+003,9.560963e+001
3.446315e+003,9.562410e+001
3.446797e+003,9.564066e+001
3.447280e+003,9.565965e+001
3.447762e+003,9.568114e+001
3.448244e+003,9.570497e+001
3.448726e+003,9.573090e+001
3.449208e+003,9.575861e+001
3.449690e+003,9.578762e+001
3.450172e+003,9.581720e+001
3.450654e+003,9.584642e+001
3.451136e+003,9.587427e+001
3.451619e+003,9.589977e+001
3.452101e+003,9.592242e+001
3.452583e+003,9.594220e+001
3.453065e+003,9.595969e+001
3.453547e+003,9.597582e+001
3.454029e+003,9.599169e+001
3.454511e+003,9.600829e+001
3.454994e+003,9.602641e+001
3.455476e+003,9.604649e+001
3.455958e+003,9.606873e+001
3.456440e+003,9.609306e+001
3.456922e+003,9.611909e+001
3.457404e+003,9.614611e+001
3.457886e+003,9.617300e+001
3.458369e+003,9.619839e+001
3.458851e+003,9.622087e+001
3.459333e+003,9.623938e+001
3.459815e+003,9.625344e+001
3.460297e+003,9.626341e+001
3.460779e+003,9.627038e+001
3.461261e+003,9.627596e+001
3.461744e+003,9.628187e+001
3.462226e+003,9.628965e+001
3.462708e+003,9.630042e+001
3.463190e+003,9.631483e+001
3.463672e+003,9.633314e+001
3.464154e+003,9.635532e+001
3.464636e+003,9.638107e+001
3.465119e+003,9.640974e+001
3.465601e+003,9.644025e+001
3.466083e+003,9.647106e+001
3.466565e+003,9.650036e+001
3.467047e+003,9.652642e+001
3.467529e+003,9.654796e+001
3.468011e+003,9.656445e+001
3.468493e+003,9.657627e+001
3.468976e+003,9.658456e+001
3.469458e+003,9.659080e+001
3.469940e+003,9.659650e+001
3.470422e+003,9.660291e+001
3.470904e+003,9.661077e+001
3.471386e+003,9.662042e+001
3.471868e+003,9.663184e+001
3.472351e+003,9.664480e+001
3.472833e+003,9.665894e+001
3.473315e+003,9.667378e+001
3.473797e+003,9.668877e+001
3.474279e+003,9.670339e+001
3.474761e+003,9.671728e+001
3.475243e+003,9.673022e+001
3.475726e+003,9.674232e+001
3.476208e+003,9.675384e+001
3.476690e+003,9.676501e+001
3.477172e+003,9.677592e+001
3.477654e+003,9.678642e+001
3.478136e+003,9.679621e+001
3.478618e+003,9.680505e+001
3.479101e+003,9.681294e+001
3.479583e+003,9.682037e+001
3.480065e+003,9.682803e+001
3.480547e+003,9.683677e+001
3.481029e+003,9.684718e+001
3.481511e+003,9.685929e+001
3.481993e+003,9.687268e+001
3.482476e+003,9.688651e+001
3.482958e+003,9.689991e+001
3.483440e+003,9.691227e+001
3.483922e+003,9.692338e+001
3.484404e+003,9.693337e+001
3.484886e+003,9.694247e+001
3.485368e+003,9.695082e+001
3.485850e+003,9.695852e+001
3.486333e+003,9.696551e+001
3.486815e+003,9.697182e+001
3.487297e+003,9.697778e+001
3.487779e+003,9.698384e+001
3.488261e+003,9.699048e+001
3.488743e+003,9.699805e+001
3.489225e+003,9.700653e+001
3.489708e+003,9.701554e+001
3.490190e+003,9.702460e+001
3.490672e+003,9.703333e+001
3.491154e+003,9.704172e+001
3.491636e+003,9.704997e+001
3.492118e+003,9.705847e+001
3.492600e+003,9.706730e+001
3.493083e+003,9.707613e+001
3.493565e+003,9.708418e+001
3.494047e+003,9.709048e+001
3.494529e+003,9.709438e+001
3.495011e+003,9.709591e+001
3.495493e+003,9.709586e+001
3.495975e+003,9.709560e+001
3.496458e+003,9.709653e+001
3.496939e+003,9.709972e+001
3.497422e+003,9.710548e+001
3.497904e+003,9.711351e+001
3.498386e+003,9.712311e+001
3.498868e+003,9.713372e+001
3.499350e+003,9.714510e+001
3.499833e+003,9.715722e+001
3.500314e+003,9.717022e+001
3.500797e+003,9.718382e+001
3.501279e+003,9.719736e+001
3.501761e+003,9.720976e+001
3.502243e+003,9.722012e+001
3.502725e+003,9.722788e+001
3.503207e+003,9.723344e+001
3.503689e+003,9.723788e+001
3.504172e+003,9.724267e+001
3.504654e+003,9.724892e+001
3.505136e+003,9.725708e+001
3.505618e+003,9.726663e+001
3.506100e+003,9.727656e+001
3.506582e+003,9.728567e+001
3.507064e+003,9.729319e+001
3.507547e+003,9.729907e+001
3.508029e+003,9.730400e+001
3.508511e+003,9.730894e+001
3.508993e+003,9.731480e+001
3.509475e+003,9.732201e+001
3.509957e+003,9.733057e+001
3.510439e+003,9.734002e+001
3.510922e+003,9.734987e+001
3.511404e+003,9.735981e+001
3.511886e+003,9.736968e+001
3.512368e+003,9.737956e+001
3.512850e+003,9.738945e+001
3.513332e+003,9.739927e+001
3.513814e+003,9.740882e+001
3.514296e+003,9.741799e+001
3.514779e+003,9.742677e+001
3.515261e+003,9.743520e+001
3.515743e+003,9.744357e+001
3.516225e+003,9.745204e+001
3.516707e+003,9.746062e+001
3.517189e+003,9.746915e+001
3.517671e+003,9.747738e+001
3.518154e+003,9.748508e+001
3.518636e+003,9.749227e+001
3.519118e+003,9.749911e+001
3.519600e+003,9.750587e+001
3.520082e+003,9.751268e+001
3.520564e+003,9.751956e+001
3.521046e+003,9.752633e+001
3.521529e+003,9.753288e+001
3.522011e+003,9.753926e+001
3.522493e+003,9.754575e+001
3.522975e+003,9.755278e+001
3.523457e+003,9.756059e+001
3.523939e+003,9.756896e+001
3.524421e+003,9.757720e+001
3.524904e+003,9.758429e+001
3.525386e+003,9.758936e+001
3.525868e+003,9.759218e+001
3.526350e+003,9.759329e+001
3.526832e+003,9.759415e+001
3.527314e+003,9.759652e+001
3.527796e+003,9.760195e+001
3.528279e+003,9.761116e+001
3.528761e+003,9.762396e+001
3.529243e+003,9.763934e+001
3.529725e+003,9.765589e+001
3.530207e+003,9.767246e+001
3.530689e+003,9.768826e+001
3.531171e+003,9.770296e+001
3.531653e+003,9.771635e+001
3.532135e+003,9.772822e+001
3.532618e+003,9.773811e+001
3.533100e+003,9.774568e+001
3.533582e+003,9.775087e+001
3.534064e+003,9.775433e+001
3.534546e+003,9.775734e+001
3.535028e+003,9.776157e+001
3.535510e+003,9.776850e+001
3.535993e+003,9.777888e+001
3.536475e+003,9.779231e+001
3.536957e+003,9.780754e+001
3.537439e+003,9.782284e+001
3.537921e+003,9.783681e+001
3.538403e+003,9.784874e+001
3.538885e+003,9.785887e+001
