3.301674e+003,9.123999e+001
3.302156e+003,9.124152e+001
3.302638e+003,9.124290e+001
3.303121e+003,9.124503e+001
3.303603e+003,9.124876e+001
3.304085e+003,9.125474e+001
3.304567e+003,9.126292e+001
3.305049e+003,9.127295e+001
3.305531e+003,9.128390e+001
3.306013e+003,9.129485e+001
3.306495e+003,9.130503e+001
3.306978e+003,9.131419e+001
3.307460e+003,9.132242e+001
3.307942e+003,9.133035e+001
3.308424e+003,9.133870e+001
3.308906e+003,9.134811e+001
3.309388e+003,9.135898e+001
3.309870e+003,9.137148e+001
3.310353e+003,9.138543e+001
3.310835e+003,9.140073e+001
3.311317e+003,9.141708e+001
3.311799e+003,9.143427e+001
3.312281e+003,9.145200e+001
3.312763e+003,9.147005e+001
3.313245e+003,9.148815e+001
3.313728e+003,9.150620e+001
3.314210e+003,9.152437e+001
3.314692e+003,9.154321e+001
3.315174e+003,9.156339e+001
3.315656e+003,9.158572e+001
3.316138e+003,9.161061e+001
3.316620e+003,9.163803e+001
3.317103e+003,9.166734e+001
3.317584e+003,9.169743e+001
3.318067e+003,9.172707e+001
3.318549e+003,9.175527e+001
3.319031e+003,9.178159e+001
3.319513e+003,9.180627e+001
3.319995e+003,9.182989e+001
3.320478e+003,9.185332e+001
3.320959e+003,9.187712e+001
3.321442e+003,9.190155e+001
3.321924e+003,9.192635e+001
3.322406e+003,9.195100e+001
3.322888e+003,9.197490e+001
3.323370e+003,9.199768e+001
3.323852e+003,9.201926e+001
3.324334e+003,9.203990e+001
3.324817e+003,9.205997e+001
3.325299e+003,9.207996e+001
3.325781e+003,9.210018e+001
3.326263e+003,9.212081e+001
3.326745e+003,9.214182e+001
3.327227e+003,9.216304e+001
3.327709e+003,9.218419e+001
3.328192e+003,9.220491e+001
3.328674e+003,9.222473e+001
3.329156e+003,9.224319e+001
3.329638e+003,9.225986e+001
3.330120e+003,9.227458e+001
3.330602e+003,9.228738e+001
3.331084e+003,9.229865e+001
3.331567e+003,9.230899e+001
3.332049e+003,9.231907e+001
3.332531e+003,9.232947e+001
3.333013e+003,9.234048e+001
3.333495e+003,9.235207e+001
3.333977e+003,9.236411e+001
3.334459e+003,9.237644e+001
3.334941e+003,9.238912e+001
3.335424e+003,9.240239e+001
3.335906e+003,9.241676e+001
3.336388e+003,9.243274e+001
3.336870e+003,9.245057e+001
3.337352e+003,9.247008e+001
3.337834e+003,9.249056e+001
3.338316e+003,9.251095e+001
3.338799e+003,9.253004e+001
3.339281e+003,9.254670e+001
3.339763e+003,9.256032e+001
3.340245e+003,9.257059e+001
3.340727e+003,9.257779e+001
3.341209e+003,9.258255e+001
3.341691e+003,9.258556e+001
3.342174e+003,9.258764e+001
3.342656e+003,9.258954e+001
3.343138e+003,9.259196e+001
3.343620e+003,9.259557e+001
3.344102e+003,9.260074e+001
3.344584e+003,9.260781e+001
3.345066e+003,9.261658e+001
3.345549e+003,9.262669e+001
3.346031e+003,9.263743e+001
3.346513e+003,9.264812e+001
3.346995e+003,9.265825e+001
3.347477e+003,9.266778e+001
3.347959e+003,9.267715e+001
3.348441e+003,9.268712e+001
3.348924e+003,9.269848e+001
3.349406e+003,9.271164e+001
3.349888e+003,9.272646e+001
3.350370e+003,9.274211e+001
3.350852e+003,9.275735e+001
3.351334e+003,9.277103e+001
3.351816e+003,9.278247e+001
3.352298e+003,9.279190e+001
3.352781e+003,9.280042e+001
3.353263e+003,9.280980e+001
3.353745e+003,9.282193e+001
3.354227e+003,9.283836e+001
3.354709e+003,9.285967e+001
3.355191e+003,9.288550e+001
3.355673e+003,9.291452e+001
3.356156e+003,9.294486e+001
3.356638e+003,9.297459e+001
3.357120e+003,9.300212e+001
3.357602e+003,9.302650e+001
3.358084e+003,9.304764e+001
3.358566e+003,9.306605e+001
3.359048e+003,9.308280e+001
3.359531e+003,9.309909e+001
3.360013e+003,9.311602e+001
3.360495e+003,9.313422e+001
3.360977e+003,9.315385e+001
3.361459e+003,9.317455e+001
3.361941e+003,9.319559e+001
3.362423e+003,9.321610e+001
3.362906e+003,9.323549e+001
3.363388e+003,9.325346e+001
3.363870e+003,9.327031e+001
3.364352e+003,9.328656e+001
3.364834e+003,9.330277e+001
3.365316e+003,9.331931e+001
3.365798e+003,9.333606e+001
3.366281e+003,9.335255e+001
3.366763e+003,9.336819e+001
3.367245e+003,9.338249e+001
3.367727e+003,9.339540e+001
3.368209e+003,9.340735e+001
3.368691e+003,9.341908e+001
3.369173e+003,9.343122e+001
3.369655e+003,9.344412e+001
3.370137e+003,9.345730e+001
3.370620e+003,9.346986e+001
3.371102e+003,9.348053e+001
3.371584e+003,9.348823e+001
3.372066e+003,9.349232e+001
3.372548e+003,9.349290e+001
3.373030e+003,9.349072e+001
3.373512e+003,9.348676e+001
3.373995e+003,9.348198e+001
3.374477e+003,9.347702e+001
3.374959e+003,9.347211e+001
3.375441e+003,9.346725e+001
3.375923e+003,9.346233e+001
3.376405e+003,9.345732e+001
3.376887e+003,9.345245e+001
3.377370e+003,9.344778e+001
3.377852e+003,9.344323e+001
3.378334e+003,9.343835e+001
3.378816e+003,9.343224e+001
3.379298e+003,9.342393e+001
3.379780e+003,9.341261e+001
3.380262e+003,9.339804e+001
3.380745e+003,9.338071e+001
3.381227e+003,9.336192e+001
3.381709e+003,9.334335e+001
3.382191e+003,9.332674e+001
3.382673e+003,9.331325e+001
3.383155e+003,9.330334e+001
3.383637e+003,9.329665e+001
3.384120e+003,9.329210e+001
3.384602e+003,9.328827e+001
3.385084e+003,9.328391e+001
3.385566e+003,9.327796e+001
3.386048e+003,9.327010e+001
3.386530e+003,9.326031e+001
3.387012e+003,9.324902e+001
3.387494e+003,9.323666e+001
3.387977e+003,9.322372e+001
3.388459e+003,9.321040e+001
3.388941e+003,9.319690e+001
3.389423e+003,9.318342e+001
3.389905e+003,9.317035e+001
3.390387e+003,9.315838e+001
3.390869e+003,9.314846e+001
3.391352e+003,9.314163e+001
3.391834e+003,9.313879e+001
3.392316e+003,9.314025e+001
3.392798e+003,9.314587e+001
3.393280e+003,9.315466e+001
3.393762e+003,9.316525e+001
3.394244e+003,9.317608e+001
3.394727e+003,9.318577e+001
3.395209e+003,9.319335e+001
3.395691e+003,9.319841e+001
3.396173e+003,9.320100e+001
3.396655e+003,9.320152e+001
3.397137e+003,9.320045e+001
3.397619e+003,9.319825e+001
3.398102e+003,9.319525e+001
3.398583e+003,9.319176e+001
3.399066e+003,9.318790e+001
3.399548e+003,9.318401e+001
3.400030e+003,9.318045e+001
3.400512e+003,9.317772e+001
3.400994e+003,9.317640e+001
3.401477e+003,9.317712e+001
3.401958e+003,9.318043e+001
3.402441e+003,9.318676e+001
3.402923e+003,9.319624e+001
3.403405e+003,9.320873e+001
3.403887e+003,9.322378e+001
3.404369e+003,9.324075e+001
3.404851e+003,9.325885e+001
3.405333e+003,9.327767e+001
3.405816e+003,9.329704e+001
3.406298e+003,9.331742e+001
3.406780e+003,9.333969e+001
3.407262e+003,9.336513e+001
3.407744e+003,9.339500e+001
3.408226e+003,9.343051e+001
3.408708e+003,9.347239e+001
3.409191e+003,9.352103e+001
3.409673e+003,9.357632e+001
3.410155e+003,9.363786e+001
3.410637e+003,9.370483e+001
3.411119e+003,9.377620e+001
3.411601e+003,9.385071e+001
3.412083e+003,9.392709e+001
3.412566e+003,9.400426e+001
3.413048e+003,9.408156e+001
3.413530e+003,9.415891e+001
3.414012e+003,9.423679e+001
3.414494e+003,9.431593e+001
3.414976e+003,9.439713e+001
3.415458e+003,9.448064e+001
3.415940e+003,9.456610e+001
3.416423e+003,9.465249e+001
3.416905e+003,9.473843e+001
3.417387e+003,9.482257e+001
3.417869e+003,9.490385e+001
3.418351e+003,9.498176e+001
3.418833e+003,9.505627e+001
3.419315e+003,9.512753e+001
3.419798e+003,9.519576e+001
3.420280e+003,9.526104e+001
3.420762e+003,9.532349e+001
3.421244e+003,9.538319e+001
3.421726e+003,9.544065e+001
3.422208e+003,9.549657e+001
3.422690e+003,9.555191e+001
3.423173e+003,9.560727e+001
3.423655e+003,9.566294e+001
3.424137e+003,9.571848e+001
3.424619e+003,9.577280e+001
3.425101e+003,9.582455e+001
3.425583e+003,9.587241e+001
3.426065e+003,9.591537e+001
3.426548e+003,9.595313e+001
3.427030e+003,9.598596e+001
3.427512e+003,9.601462e+001
3.427994e+003,9.604006e+001
3.428476e+003,9.606346e+001
3.428958e+003,9.608578e+001
3.429440e+003,9.610797e+001
3.429923e+003,9.613074e+001
3.430405e+003,9.615465e+001
3.430887e+003,9.617979e+001
3.431369e+003,9.620608e+001
3.431851e+003,9.623292e+001
3.432333e+003,9.625964e+001
3.432815e+003,9.628540e+001
3.433297e+003,9.630971e+001
3.433780e+003,9.633230e+001
3.434262e+003,9.635332e+001
3.434744e+003,9.637307e+001
3.435226e+003,9.639199e+001
3.435708e+003,9.641032e+001
3.436190e+003,9.642828e+001
3.436672e+003,9.644597e+001
3.437155e+003,9.646349e+001
3.437637e+003,9.648096e+001
3.438119e+003,9.649866e+001
3.438601e+003,9.651676e+001
3.439083e+003,9.653545e+001
3.439565e+003,9.655469e+001
3.440047e+003,9.657447e+001
3.440530e+003,9.659480e+001
3.441012e+003,9.661596e+001
3.441494e+003,9.663835e+001
3.441976e+003,9.666257e+001
3.442458e+003,9.668888e+001
3.442940e+003,9.671719e+001
3.443422e+003,9.674676e+001
3.443905e+003,9.677637e+001
3.444387e+003,9.680466e+001
3.444869e+003,9.683045e+001
3.445351e+003,9.685315e+001
3.445833e+003,9.687311e+001
3.446315e+003,9.689120e+001
3.446797e+003,9.690885e+001
3.447280e+003,9.692730e+001
3.447762e+003,9.694736e+001
3.448244e+003,9.696915e+001
3.448726e+003,9.699230e+001
3.449208e+003,9.701601e+001
3.449690e+003,9.703959e+001
3.450172e+003,9.706251e+001
3.450654e+003,9.708462e+001
3.451136e+003,9.710602e+001
3.451619e+003,9.712704e+001
3.452101e+003,9.714801e+001
3.452583e+003,9.716918e+001
3.453065e+003,9.719072e+001
3.453547e+003,9.721278e+001
3.454029e+003,9.723537e+001
3.454511e+003,9.725845e+001
3.454994e+003,9.728185e+001
3.455476e+003,9.730526e+001
3.455958e+003,9.732827e+001
3.456440e+003,9.735044e+001
3.456922e+003,9.737137e+001
3.457404e+003,9.739096e+001
3.457886e+003,9.740932e+001
3.458369e+003,9.742702e+001
3.458851e+003,9.744471e+001
3.459333e+003,9.746317e+001
3.459815e+003,9.748296e+001
3.460297e+003,9.750420e+001
3.460779e+003,9.752657e+001
3.461261e+003,9.754920e+001
3.461744e+003,9.757084e+001
3.462226e+003,9.759029e+001
3.462708e+003,9.760656e+001
3.463190e+003,9.761945e+001
3.463672e+003,9.762943e+001
3.464154e+003,9.763771e+001
3.464636e+003,9.764588e+001
3.465119e+003,9.765545e+001
3.465601e+003,9.766738e+001
3.466083e+003,9.768198e+001
3.466565e+003,9.769866e+001
3.467047e+003,9.771649e+001
3.467529e+003,9.773436e+001
3.468011e+003,9.775163e+001
3.468493e+003,9.776820e+001
3.468976e+003,9.778457e+001
3.469458e+003,9.780126e+001
3.469940e+003,9.781876e+001
3.470422e+003,9.783686e+001
3.470904e+003,9.785487e+001
3.471386e+003,9.787174e+001
3.471868e+003,9.788661e+001
3.472351e+003,9.789925e+001
3.472833e+003,9.791019e+001
3.473315e+003,9.792075e+001
3.473797e+003,9.793246e+001
3.474279e+003,9.794639e+001
3.474761e+003,9.796291e+001
3.475243e+003,9.798122e+001
3.475726e+003,9.799973e+001
3.476208e+003,9.801656e+001
3.476690e+003,9.803030e+001
3.477172e+003,9.804021e+001
3.477654e+003,9.804682e+001
3.478136e+003,9.805135e+001
3.478618e+003,9.805550e+001
3.479101e+003,9.806093e+001
3.479583e+003,9.806874e+001
3.480065e+003,9.807934e+001
3.480547e+003,9.809248e+001
3.481029e+003,9.810738e+001
3.481511e+003,9.812302e+001
3.481993e+003,9.813824e+001
3.482476e+003,9.815205e+001
3.482958e+003,9.816366e+001
3.483440e+003,9.817274e+001
3.483922e+003,9.817942e+001
3.484404e+003,9.818455e+001
3.484886e+003,9.818935e+001
3.485368e+003,9.819546e+001
3.485850e+003,9.820427e+001
3.486333e+003,9.821665e+001
3.486815e+003,9.823259e+001
3.487297e+003,9.825111e+001
3.487779e+003,9.827061e+001
3.488261e+003,9.828945e+001
3.488743e+003,9.830637e+001
3.489225e+003,9.832107e+001
3.489708e+003,9.833401e+001
3.490190e+003,9.834632e+001
3.490672e+003,9.835902e+001
3.491154e+003,9.837269e+001
3.491636e+003,9.838711e+001
3.492118e+003,9.840136e+001
3.492600e+003,9.841417e+001
3.493083e+003,9.842462e+001
3.493565e+003,9.843239e+001
3.494047e+003,9.843799e+001
3.494529e+003,9.844252e+001
3.495011e+003,9.844722e+001
3.495493e+003,9.845314e+001
3.495975e+003,9.846072e+001
3.496458e+003,9.846972e+001
3.496939e+003,9.847950e+001
3.497422e+003,9.848932e+001
3.497904e+003,9.849863e+001
3.498386e+003,9.850719e+001
3.498868e+003,9.851504e+001
3.499350e+003,9.852248e+001
3.499833e+003,9.852974e+001
3.500314e+003,9.853716e+001
3.500797e+003,9.854498e+001
3.501279e+003,9.855341e+001
3.501761e+003,9.856279e+001
3.502243e+003,9.857318e+001
3.502725e+003,9.858450e+001
3.503207e+003,9.859629e+001
3.503689e+003,9.860793e+001
3.504172e+003,9.861862e+001
3.504654e+003,9.862794e+001
3.505136e+003,9.863589e+001
3.505618e+003,9.864306e+001
3.506100e+003,9.865028e+001
3.506582e+003,9.865847e+001
3.507064e+003,9.866806e+001
3.507547e+003,9.867896e+001
3.508029e+003,9.869048e+001
3.508511e+003,9.870166e+001
3.508993e+003,9.871175e+001
3.509475e+003,9.872065e+001
3.509957e+003,9.872882e+001
3.510439e+003,9.873715e+001
3.510922e+003,9.874654e+001
3.511404e+003,9.875744e+001
3.511886e+003,9.876947e+001
3.512368e+003,9.878171e+001
3.512850e+003,9.879282e+001
3.513332e+003,9.880173e+001
3.513814e+003,9.880787e+001
3.514296e+003,9.881146e+001
3.514779e+003,9.881338e+001
3.515261e+003,9.881499e+001
3.515743e+003,9.881765e+001
3.516225e+003,9.882259e+001
3.516707e+003,9.883059e+001
3.517189e+003,9.884203e+001
3.517671e+003,9.885663e+001
3.518154e+003,9.887372e+001
3.518636e+003,9.889195e+001
3.519118e+003,9.890974e+001
3.519600e+003,9.892536e+001
3.520082e+003,9.893752e+001
3.520564e+003,9.894562e+001
3.521046e+003,9.895008e+001
3.521529e+003,9.895213e+001
3.522011e+003,9.895347e+001
3.522493e+003,9.895558e+001
3.522975e+003,9.895923e+001
3.523457e+003,9.896417e+001
3.523939e+003,9.896950e+001
3.524421e+003,9.897399e+001
3.524904e+003,9.897703e+001
3.525386e+003,9.897875e+001
3.525868e+003,9.898028e+001
3.526350e+003,9.898307e+001
3.526832e+003,9.898838e+001
3.527314e+003,9.899657e+001
3.527796e+003,9.900713e+001
3.528279e+003,9.901874e+001
3.528761e+003,9.903023e+001
3.529243e+003,9.904086e+001
3.529725e+003,9.905099e+001
3.530207e+003,9.906149e+001
3.530689e+003,9.907342e+001
3.531171e+003,9.908713e+001
3.531653e+003,9.910204e+001
3.532135e+003,9.911653e+001
3.532618e+003,9.912870e+001
3.533100e+003,9.913702e+001
3.533582e+003,9.914105e+001
3.534064e+003,9.914154e+001
3.534546e+003,9.914026e+001
3.535028e+003,9.913921e+001
3.535510e+003,9.914001e+001
3.535993e+003,9.914333e+001
3.536475e+003,9.914906e+001
3.536957e+003,9.915645e+001
3.537439e+003,9.916478e+001
3.537921e+003,9.917352e+001
3.538403e+003,9.918266e+001
3.538885e+003,9.919201e+001
