3.301674e+003,9.058019e+001
3.302156e+003,9.057803e+001
3.302638e+003,9.057549e+001
3.303121e+003,9.057246e+001
3.303603e+003,9.056911e+001
3.304085e+003,9.056596e+001
3.304567e+003,9.056395e+001
3.305049e+003,9.056400e+001
3.305531e+003,9.056689e+001
3.306013e+003,9.057308e+001
3.306495e+003,9.058256e+001
3.306978e+003,9.059483e+001
3.307460e+003,9.060909e+001
3.307942e+003,9.062434e+001
3.308424e+003,9.063963e+001
3.308906e+003,9.065416e+001
3.309388e+003,9.066744e+001
3.309870e+003,9.067948e+001
3.310353e+003,9.069056e+001
3.310835e+003,9.070129e+001
3.311317e+003,9.071229e+001
3.311799e+003,9.072398e+001
3.312281e+003,9.073665e+001
3.312763e+003,9.075020e+001
3.313245e+003,9.076462e+001
3.313728e+003,9.077988e+001
3.314210e+003,9.079619e+001
3.314692e+003,9.081386e+001
3.315174e+003,9.083305e+001
3.315656e+003,9.085357e+001
3.316138e+003,9.087470e+001
3.316620e+003,9.089527e+001
3.317103e+003,9.091403e+001
3.317584e+003,9.093007e+001
3.318067e+003,9.094318e+001
3.318549e+003,9.095419e+001
3.319031e+003,9.096458e+001
3.319513e+003,9.097604e+001
3.319995e+003,9.099006e+001
3.320478e+003,9.100732e+001
3.320959e+003,9.102772e+001
3.321442e+003,9.105041e+001
3.321924e+003,9.107436e+001
3.322406e+003,9.109860e+001
3.322888e+003,9.112249e+001
3.323370e+003,9.114577e+001
3.323852e+003,9.116823e+001
3.324334e+003,9.118975e+001
3.324817e+003,9.120999e+001
3.325299e+003,9.122855e+001
3.325781e+003,9.124532e+001
3.326263e+003,9.126049e+001
3.326745e+003,9.127457e+001
3.327227e+003,9.128835e+001
3.327709e+003,9.130247e+001
3.328192e+003,9.131716e+001
3.328674e+003,9.133221e+001
3.329156e+003,9.134693e+001
3.329638e+003,9.136063e+001
3.330120e+003,9.137275e+001
3.330602e+003,9.138319e+001
3.331084e+003,9.139222e+001
3.331567e+003,9.140034e+001
3.332049e+003,9.140801e+001
3.332531e+003,9.141553e+001
3.333013e+003,9.142308e+001
3.333495e+003,9.143082e+001
3.333977e+003,9.143910e+001
3.334459e+003,9.144852e+001
3.334941e+003,9.145970e+001
3.335424e+003,9.147309e+001
3.335906e+003,9.148861e+001
3.336388e+003,9.150553e+001
3.336870e+003,9.152266e+001
3.337352e+003,9.153862e+001
3.337834e+003,9.155244e+001
3.338316e+003,9.156376e+001
3.338799e+003,9.157296e+001
3.339281e+003,9.158089e+001
3.339763e+003,9.158852e+001
3.340245e+003,9.159641e+001
3.340727e+003,9.160456e+001
3.341209e+003,9.161254e+001
3.341691e+003,9.161972e+001
3.342174e+003,9.162573e+001
3.342656e+003,9.163068e+001
3.343138e+003,9.163525e+001
3.343620e+003,9.164038e+001
3.344102e+003,9.164695e+001
3.344584e+003,9.165545e+001
3.345066e+003,9.166586e+001
3.345549e+003,9.167766e+001
3.346031e+003,9.169016e+001
3.346513e+003,9.170271e+001
3.346995e+003,9.171497e+001
3.347477e+003,9.172677e+001
3.347959e+003,9.173820e+001
3.348441e+003,9.174921e+001
3.348924e+003,9.175967e+001
3.349406e+003,9.176929e+001
3.349888e+003,9.177792e+001
3.350370e+003,9.178541e+001
3.350852e+003,9.179198e+001
3.351334e+003,9.179806e+001
3.351816e+003,9.180418e+001
3.352298e+003,9.181081e+001
3.352781e+003,9.181816e+001
3.353263e+003,9.182635e+001
3.353745e+003,9.183528e+001
3.354227e+003,9.184501e+001
3.354709e+003,9.185574e+001
3.355191e+003,9.186793e+001
3.355673e+003,9.188214e+001
3.356156e+003,9.189875e+001
3.356638e+003,9.191776e+001
3.357120e+003,9.193877e+001
3.357602e+003,9.196085e+001
3.358084e+003,9.198288e+001
3.358566e+003,9.200386e+001
3.359048e+003,9.202312e+001
3.359531e+003,9.204053e+001
3.360013e+003,9.205643e+001
3.360495e+003,9.207143e+001
3.360977e+003,9.208615e+001
3.361459e+003,9.210101e+001
3.361941e+003,9.211604e+001
3.362423e+003,9.213104e+001
3.362906e+003,9.214562e+001
3.363388e+003,9.215957e+001
3.363870e+003,9.217274e+001
3.364352e+003,9.218538e+001
3.364834e+003,9.219787e+001
3.365316e+003,9.221073e+001
3.365798e+003,9.222419e+001
3.366281e+003,9.223836e+001
3.366763e+003,9.225301e+001
3.367245e+003,9.226769e+001
3.367727e+003,9.228181e+001
3.368209e+003,9.229488e+001
3.368691e+003,9.230659e+001
3.369173e+003,9.231699e+001
3.369655e+003,9.232639e+001
3.370137e+003,9.233541e+001
3.370620e+003,9.234469e+001
3.371102e+003,9.235484e+001
3.371584e+003,9.236602e+001
3.372066e+003,9.237787e+001
3.372548e+003,9.238949e+001
3.373030e+003,9.239951e+001
3.373512e+003,9.240649e+001
3.373995e+003,9.240935e+001
3.374477e+003,9.240755e+001
3.374959e+003,9.240154e+001
3.375441e+003,9.239249e+001
3.375923e+003,9.238210e+001
3.376405e+003,9.237213e+001
3.376887e+003,9.236398e+001
3.377370e+003,9.235837e+001
3.377852e+003,9.235531e+001
3.378334e+003,9.235416e+001
3.378816e+003,9.235411e+001
3.379298e+003,9.235417e+001
3.379780e+003,9.235370e+001
3.380262e+003,9.235213e+001
3.380745e+003,9.234914e+001
3.381227e+003,9.234446e+001
3.381709e+003,9.233796e+001
3.382191e+003,9.232958e+001
3.382673e+003,9.231947e+001
3.383155e+003,9.230799e+001
3.383637e+003,9.229575e+001
3.384120e+003,9.228338e+001
3.384602e+003,9.227141e+001
3.385084e+003,9.226009e+001
3.385566e+003,9.224951e+001
3.386048e+003,9.223967e+001
3.386530e+003,9.223063e+001
3.387012e+003,9.222260e+001
3.387494e+003,9.221606e+001
3.387977e+003,9.221139e+001
3.388459e+003,9.220879e+001
3.388941e+003,9.220790e+001
3.389423e+003,9.220792e+001
3.389905e+003,9.220784e+001
3.390387e+003,9.220670e+001
3.390869e+003,9.220408e+001
3.391352e+003,9.220026e+001
3.391834e+003,9.219612e+001
3.392316e+003,9.219288e+001
3.392798e+003,9.219164e+001
3.393280e+003,9.219307e+001
3.393762e+003,9.219720e+001
3.394244e+003,9.220349e+001
3.394727e+003,9.221118e+001
3.395209e+003,9.221960e+001
3.395691e+003,9.222825e+001
3.396173e+003,9.223689e+001
3.396655e+003,9.224529e+001
3.397137e+003,9.225323e+001
3.397619e+003,9.226024e+001
3.398102e+003,9.226582e+001
3.398583e+003,9.226943e+001
3.399066e+003,9.227084e+001
3.399548e+003,9.227020e+001
3.400030e+003,9.226791e+001
3.400512e+003,9.226460e+001
3.400994e+003,9.226093e+001
3.401477e+003,9.225746e+001
3.401958e+003,9.225465e+001
3.402441e+003,9.225285e+001
3.402923e+003,9.225242e+001
3.403405e+003,9.225372e+001
3.403887e+003,9.225697e+001
3.404369e+003,9.226228e+001
3.404851e+003,9.226955e+001
3.405333e+003,9.227850e+001
3.405816e+003,9.228905e+001
3.406298e+003,9.230144e+001
3.406780e+003,9.231631e+001
3.407262e+003,9.233476e+001
3.407744e+003,9.235801e+001
3.408226e+003,9.238697e+001
3.408708e+003,9.242198e+001
3.409191e+003,9.246266e+001
3.409673e+003,9.250806e+001
3.410155e+003,9.255698e+001
3.410637e+003,9.260855e+001
3.411119e+003,9.266245e+001
3.411601e+003,9.271897e+001
3.412083e+003,9.277874e+001
3.412566e+003,9.284234e+001
3.413048e+003,9.290993e+001
3.413530e+003,9.298103e+001
3.414012e+003,9.305449e+001
3.414494e+003,9.312885e+001
3.414976e+003,9.320262e+001
3.415458e+003,9.327480e+001
3.415940e+003,9.334484e+001
3.416423e+003,9.341283e+001
3.416905e+003,9.347910e+001
3.417387e+003,9.354410e+001
3.417869e+003,9.360809e+001
3.418351e+003,9.367102e+001
3.418833e+003,9.373256e+001
3.419315e+003,9.379211e+001
3.419798e+003,9.384911e+001
3.420280e+003,9.390301e+001
3.420762e+003,9.395359e+001
3.421244e+003,9.400084e+001
3.421726e+003,9.404505e+001
3.422208e+003,9.408667e+001
3.422690e+003,9.412623e+001
3.423173e+003,9.416416e+001
3.423655e+003,9.420089e+001
3.424137e+003,9.423672e+001
3.424619e+003,9.427197e+001
3.425101e+003,9.430687e+001
3.425583e+003,9.434157e+001
3.426065e+003,9.437617e+001
3.426548e+003,9.441055e+001
3.427030e+003,9.444429e+001
3.427512e+003,9.447660e+001
3.427994e+003,9.450663e+001
3.428476e+003,9.453346e+001
3.428958e+003,9.455653e+001
3.429440e+003,9.457584e+001
3.429923e+003,9.459193e+001
3.430405e+003,9.460599e+001
3.430887e+003,9.461941e+001
3.431369e+003,9.463355e+001
3.431851e+003,9.464941e+001
3.432333e+003,9.466743e+001
3.432815e+003,9.468748e+001
3.433297e+003,9.470907e+001
3.433780e+003,9.473146e+001
3.434262e+003,9.475406e+001
3.434744e+003,9.477625e+001
3.435226e+003,9.479761e+001
3.435708e+003,9.481770e+001
3.436190e+003,9.483607e+001
3.436672e+003,9.485233e+001
3.437155e+003,9.486617e+001
3.437637e+003,9.487763e+001
3.438119e+003,9.488725e+001
3.438601e+003,9.489603e+001
3.439083e+003,9.490527e+001
3.439565e+003,9.491635e+001
3.440047e+003,9.493048e+001
3.440530e+003,9.494833e+001
3.441012e+003,9.496991e+001
3.441494e+003,9.499471e+001
3.441976e+003,9.502175e+001
3.442458e+003,9.504992e+001
3.442940e+003,9.507810e+001
3.443422e+003,9.510552e+001
3.443905e+003,9.513165e+001
3.444387e+003,9.515621e+001
3.444869e+003,9.517896e+001
3.445351e+003,9.519985e+001
3.445833e+003,9.521884e+001
3.446315e+003,9.523605e+001
3.446797e+003,9.525182e+001
3.447280e+003,9.526679e+001
3.447762e+003,9.528190e+001
3.448244e+003,9.529815e+001
3.448726e+003,9.531630e+001
3.449208e+003,9.533665e+001
3.449690e+003,9.535889e+001
3.450172e+003,9.538194e+001
3.450654e+003,9.540433e+001
3.451136e+003,9.542458e+001
3.451619e+003,9.544167e+001
3.452101e+003,9.545538e+001
3.452583e+003,9.546646e+001
3.453065e+003,9.547652e+001
3.453547e+003,9.548740e+001
3.454029e+003,9.550081e+001
3.454511e+003,9.551762e+001
3.454994e+003,9.553789e+001
3.455476e+003,9.556067e+001
3.455958e+003,9.558456e+001
3.456440e+003,9.560803e+001
3.456922e+003,9.563004e+001
3.457404e+003,9.565013e+001
3.457886e+003,9.566854e+001
3.458369e+003,9.568588e+001
3.458851e+003,9.570283e+001
3.459333e+003,9.571985e+001
3.459815e+003,9.573711e+001
3.460297e+003,9.575440e+001
3.460779e+003,9.577147e+001
3.461261e+003,9.578822e+001
3.461744e+003,9.580475e+001
3.462226e+003,9.582156e+001
3.462708e+003,9.583916e+001
3.463190e+003,9.585818e+001
3.463672e+003,9.587869e+001
3.464154e+003,9.590055e+001
3.464636e+003,9.592304e+001
3.465119e+003,9.594522e+001
3.465601e+003,9.596616e+001
3.466083e+003,9.598508e+001
3.466565e+003,9.600170e+001
3.467047e+003,9.601624e+001
3.467529e+003,9.602923e+001
3.468011e+003,9.604137e+001
3.468493e+003,9.605325e+001
3.468976e+003,9.606516e+001
3.469458e+003,9.607706e+001
3.469940e+003,9.608865e+001
3.470422e+003,9.609968e+001
3.470904e+003,9.611008e+001
3.471386e+003,9.612015e+001
3.471868e+003,9.613039e+001
3.472351e+003,9.614138e+001
3.472833e+003,9.615348e+001
3.473315e+003,9.616659e+001
3.473797e+003,9.618007e+001
3.474279e+003,9.619307e+001
3.474761e+003,9.620480e+001
3.475243e+003,9.621496e+001
3.475726e+003,9.622394e+001
3.476208e+003,9.623276e+001
3.476690e+003,9.624284e+001
3.477172e+003,9.625529e+001
3.477654e+003,9.627069e+001
3.478136e+003,9.628860e+001
3.478618e+003,9.630785e+001
3.479101e+003,9.632681e+001
3.479583e+003,9.634396e+001
3.480065e+003,9.635831e+001
3.480547e+003,9.636962e+001
3.481029e+003,9.637826e+001
3.481511e+003,9.638495e+001
3.481993e+003,9.639037e+001
3.482476e+003,9.639503e+001
3.482958e+003,9.639908e+001
3.483440e+003,9.640269e+001
3.483922e+003,9.640633e+001
3.484404e+003,9.641083e+001
3.484886e+003,9.641737e+001
3.485368e+003,9.642705e+001
3.485850e+003,9.644062e+001
3.486333e+003,9.645790e+001
3.486815e+003,9.647781e+001
3.487297e+003,9.649854e+001
3.487779e+003,9.651815e+001
3.488261e+003,9.653514e+001
3.488743e+003,9.654890e+001
3.489225e+003,9.655988e+001
3.489708e+003,9.656929e+001
3.490190e+003,9.657850e+001
3.490672e+003,9.658858e+001
3.491154e+003,9.659972e+001
3.491636e+003,9.661132e+001
3.492118e+003,9.662225e+001
3.492600e+003,9.663123e+001
3.493083e+003,9.663751e+001
3.493565e+003,9.664117e+001
3.494047e+003,9.664320e+001
3.494529e+003,9.664517e+001
3.495011e+003,9.664887e+001
3.495493e+003,9.665575e+001
3.495975e+003,9.666656e+001
3.496458e+003,9.668118e+001
3.496939e+003,9.669859e+001
3.497422e+003,9.671728e+001
3.497904e+003,9.673550e+001
3.498386e+003,9.675163e+001
3.498868e+003,9.676434e+001
3.499350e+003,9.677286e+001
3.499833e+003,9.677708e+001
3.500314e+003,9.677740e+001
3.500797e+003,9.677488e+001
3.501279e+003,9.677090e+001
3.501761e+003,9.676706e+001
3.502243e+003,9.676492e+001
3.502725e+003,9.676565e+001
3.503207e+003,9.676985e+001
3.503689e+003,9.677755e+001
3.504172e+003,9.678820e+001
3.504654e+003,9.680087e+001
3.505136e+003,9.681458e+001
3.505618e+003,9.682845e+001
3.506100e+003,9.684183e+001
3.506582e+003,9.685442e+001
3.507064e+003,9.686612e+001
3.507547e+003,9.687698e+001
3.508029e+003,9.688725e+001
3.508511e+003,9.689718e+001
3.508993e+003,9.690713e+001
3.509475e+003,9.691757e+001
3.509957e+003,9.692896e+001
3.510439e+003,9.694158e+001
3.510922e+003,9.695555e+001
3.511404e+003,9.697052e+001
3.511886e+003,9.698595e+001
3.512368e+003,9.700091e+001
3.512850e+003,9.701443e+001
3.513332e+003,9.702567e+001
3.513814e+003,9.703413e+001
3.514296e+003,9.703963e+001
3.514779e+003,9.704241e+001
3.515261e+003,9.704301e+001
3.515743e+003,9.704212e+001
3.516225e+003,9.704054e+001
3.516707e+003,9.703907e+001
3.517189e+003,9.703846e+001
3.517671e+003,9.703934e+001
3.518154e+003,9.704205e+001
3.518636e+003,9.704676e+001
3.519118e+003,9.705330e+001
3.519600e+003,9.706112e+001
3.520082e+003,9.706966e+001
3.520564e+003,9.707833e+001
3.521046e+003,9.708683e+001
3.521529e+003,9.709518e+001
3.522011e+003,9.710371e+001
3.522493e+003,9.711288e+001
3.522975e+003,9.712307e+001
3.523457e+003,9.713429e+001
3.523939e+003,9.714628e+001
3.524421e+003,9.715840e+001
3.524904e+003,9.717009e+001
3.525386e+003,9.718094e+001
3.525868e+003,9.719093e+001
3.526350e+003,9.720042e+001
3.526832e+003,9.720995e+001
3.527314e+003,9.722005e+001
3.527796e+003,9.723094e+001
3.528279e+003,9.724249e+001
3.528761e+003,9.725426e+001
3.529243e+003,9.726576e+001
3.529725e+003,9.727661e+001
3.530207e+003,9.728670e+001
3.530689e+003,9.729622e+001
3.531171e+003,9.730556e+001
3.531653e+003,9.731499e+001
3.532135e+003,9.732465e+001
3.532618e+003,9.733436e+001
3.533100e+003,9.734385e+001
3.533582e+003,9.735280e+001
3.534064e+003,9.736104e+001
3.534546e+003,9.736861e+001
3.535028e+003,9.737566e+001
3.535510e+003,9.738245e+001
3.535993e+003,9.738898e+001
3.536475e+003,9.739511e+001
3.536957e+003,9.740059e+001
3.537439e+003,9.740510e+001
3.537921e+003,9.740866e+001
3.538403e+003,9.741169e+001
3.538885e+003,9.741497e+001
