3.301674e+003,7.854839e+001
3.302156e+003,7.856654e+001
3.302638e+003,7.858268e+001
3.303121e+003,7.859678e+001
3.303603e+003,7.860962e+001
3.304085e+003,7.862224e+001
3.304567e+003,7.863558e+001
3.305049e+003,7.865022e+001
3.305531e+003,7.866621e+001
3.306013e+003,7.868340e+001
3.306495e+003,7.870161e+001
3.306978e+003,7.872100e+001
3.307460e+003,7.874171e+001
3.307942e+003,7.876405e+001
3.308424e+003,7.878790e+001
3.308906e+003,7.881282e+001
3.309388e+003,7.883813e+001
3.309870e+003,7.886330e+001
3.310353e+003,7.888817e+001
3.310835e+003,7.891324e+001
3.311317e+003,7.893927e+001
3.311799e+003,7.896695e+001
3.312281e+003,7.899654e+001
3.312763e+003,7.902758e+001
3.313245e+003,7.905910e+001
3.313728e+003,7.909000e+001
3.314210e+003,7.911953e+001
3.314692e+003,7.914760e+001
3.315174e+003,7.917460e+001
3.315656e+003,7.920122e+001
3.316138e+003,7.922798e+001
3.316620e+003,7.925507e+001
3.317103e+003,7.928220e+001
3.317584e+003,7.930916e+001
3.318067e+003,7.933578e+001
3.318549e+003,7.936228e+001
3.319031e+003,7.938902e+001
3.319513e+003,7.941628e+001
3.319995e+003,7.944389e+001
3.320478e+003,7.947128e+001
3.320959e+003,7.949770e+001
3.321442e+003,7.952263e+001
3.321924e+003,7.954613e+001
3.322406e+003,7.956905e+001
3.322888e+003,7.959252e+001
3.323370e+003,7.961760e+001
3.323852e+003,7.964469e+001
3.324334e+003,7.967335e+001
3.324817e+003,7.970245e+001
3.325299e+003,7.973079e+001
3.325781e+003,7.975767e+001
3.326263e+003,7.978321e+001
3.326745e+003,7.980822e+001
3.327227e+003,7.983379e+001
3.327709e+003,7.986070e+001
3.328192e+003,7.988895e+001
3.328674e+003,7.991787e+001
3.329156e+003,7.994648e+001
3.329638e+003,7.997398e+001
3.330120e+003,8.000015e+001
3.330602e+003,8.002531e+001
3.331084e+003,8.005011e+001
3.331567e+003,8.007499e+001
3.332049e+003,8.010002e+001
3.332531e+003,8.012468e+001
3.333013e+003,8.014828e+001
3.333495e+003,8.017023e+001
3.333977e+003,8.019029e+001
3.334459e+003,8.020860e+001
3.334941e+003,8.022550e+001
3.335424e+003,8.024118e+001
3.335906e+003,8.025566e+001
3.336388e+003,8.026898e+001
3.336870e+003,8.028139e+001
3.337352e+003,8.029376e+001
3.337834e+003,8.030740e+001
3.338316e+003,8.032369e+001
3.338799e+003,8.034357e+001
3.339281e+003,8.036692e+001
3.339763e+003,8.039245e+001
3.340245e+003,8.041805e+001
3.340727e+003,8.044160e+001
3.341209e+003,8.046171e+001
3.341691e+003,8.047828e+001
3.342174e+003,8.049231e+001
3.342656e+003,8.050549e+001
3.343138e+003,8.051928e+001
3.343620e+003,8.053430e+001
3.344102e+003,8.055029e+001
3.344584e+003,8.056635e+001
3.345066e+003,8.058165e+001
3.345549e+003,8.059601e+001
3.346031e+003,8.061004e+001
3.346513e+003,8.062498e+001
3.346995e+003,8.064211e+001
3.347477e+003,8.066227e+001
3.347959e+003,8.068540e+001
3.348441e+003,8.071086e+001
3.348924e+003,8.073756e+001
3.349406e+003,8.076460e+001
3.349888e+003,8.079135e+001
3.350370e+003,8.081757e+001
3.350852e+003,8.084329e+001
3.351334e+003,8.086857e+001
3.351816e+003,8.089346e+001
3.352298e+003,8.091799e+001
3.352781e+003,8.094240e+001
3.353263e+003,8.096699e+001
3.353745e+003,8.099213e+001
3.354227e+003,8.101814e+001
3.354709e+003,8.104491e+001
3.355191e+003,8.107201e+001
3.355673e+003,8.109892e+001
3.356156e+003,8.112531e+001
3.356638e+003,8.115122e+001
3.357120e+003,8.117725e+001
3.357602e+003,8.120405e+001
3.358084e+003,8.123219e+001
3.358566e+003,8.126160e+001
3.359048e+003,8.129165e+001
3.359531e+003,8.132137e+001
3.360013e+003,8.135003e+001
3.360495e+003,8.137744e+001
3.360977e+003,8.140414e+001
3.361459e+003,8.143093e+001
3.361941e+003,8.145844e+001
3.362423e+003,8.148642e+001
3.362906e+003,8.151369e+001
3.363388e+003,8.153841e+001
3.363870e+003,8.155886e+001
3.364352e+003,8.157420e+001
3.364834e+003,8.158491e+001
3.365316e+003,8.159280e+001
3.365798e+003,8.160034e+001
3.366281e+003,8.160976e+001
3.366763e+003,8.162228e+001
3.367245e+003,8.163792e+001
3.367727e+003,8.165565e+001
3.368209e+003,8.167387e+001
3.368691e+003,8.169115e+001
3.369173e+003,8.170632e+001
3.369655e+003,8.171870e+001
3.370137e+003,8.172782e+001
3.370620e+003,8.173338e+001
3.371102e+003,8.173521e+001
3.371584e+003,8.173355e+001
3.372066e+003,8.172909e+001
3.372548e+003,8.172309e+001
3.373030e+003,8.171706e+001
3.373512e+003,8.171212e+001
3.373995e+003,8.170872e+001
3.374477e+003,8.170631e+001
3.374959e+003,8.170364e+001
3.375441e+003,8.169936e+001
3.375923e+003,8.169259e+001
3.376405e+003,8.168326e+001
3.376887e+003,8.167200e+001
3.377370e+003,8.165977e+001
3.377852e+003,8.164713e+001
3.378334e+003,8.163405e+001
3.378816e+003,8.161983e+001
3.379298e+003,8.160374e+001
3.379780e+003,8.158535e+001
3.380262e+003,8.156503e+001
3.380745e+003,8.154380e+001
3.381227e+003,8.152283e+001
3.381709e+003,8.150295e+001
3.382191e+003,8.148421e+001
3.382673e+003,8.146606e+001
3.383155e+003,8.144784e+001
3.383637e+003,8.142920e+001
3.384120e+003,8.141067e+001
3.384602e+003,8.139322e+001
3.385084e+003,8.137805e+001
3.385566e+003,8.136563e+001
3.386048e+003,8.135542e+001
3.386530e+003,8.134598e+001
3.387012e+003,8.133565e+001
3.387494e+003,8.132322e+001
3.387977e+003,8.130866e+001
3.388459e+003,8.129304e+001
3.388941e+003,8.127792e+001
3.389423e+003,8.126474e+001
3.389905e+003,8.125408e+001
3.390387e+003,8.124546e+001
3.390869e+003,8.123790e+001
3.391352e+003,8.123057e+001
3.391834e+003,8.122348e+001
3.392316e+003,8.121751e+001
3.392798e+003,8.121424e+001
3.393280e+003,8.121481e+001
3.393762e+003,8.121939e+001
3.394244e+003,8.122685e+001
3.394727e+003,8.123502e+001
3.395209e+003,8.124143e+001
3.395691e+003,8.124423e+001
3.396173e+003,8.124274e+001
3.396655e+003,8.123759e+001
3.397137e+003,8.123027e+001
3.397619e+003,8.122247e+001
3.398102e+003,8.121557e+001
3.398583e+003,8.121035e+001
3.399066e+003,8.120702e+001
3.399548e+003,8.120550e+001
3.400030e+003,8.120577e+001
3.400512e+003,8.120782e+001
3.400994e+003,8.121173e+001
3.401477e+003,8.121740e+001
3.401958e+003,8.122470e+001
3.402441e+003,8.123338e+001
3.402923e+003,8.124342e+001
3.403405e+003,8.125515e+001
3.403887e+003,8.126928e+001
3.404369e+003,8.128681e+001
3.404851e+003,8.130887e+001
3.405333e+003,8.133643e+001
3.405816e+003,8.137025e+001
3.406298e+003,8.141089e+001
3.406780e+003,8.145876e+001
3.407262e+003,8.151395e+001
3.407744e+003,8.157623e+001
3.408226e+003,8.164481e+001
3.408708e+003,8.171845e+001
3.409191e+003,8.179558e+001
3.409673e+003,8.187469e+001
3.410155e+003,8.195497e+001
3.410637e+003,8.203634e+001
3.411119e+003,8.211956e+001
3.411601e+003,8.220573e+001
3.412083e+003,8.229579e+001
3.412566e+003,8.239008e+001
3.413048e+003,8.248810e+001
3.413530e+003,8.258883e+001
3.414012e+003,8.269104e+001
3.414494e+003,8.279387e+001
3.414976e+003,8.289697e+001
3.415458e+003,8.300035e+001
3.415940e+003,8.310426e+001
3.416423e+003,8.320877e+001
3.416905e+003,8.331368e+001
3.417387e+003,8.341863e+001
3.417869e+003,8.352346e+001
3.418351e+003,8.362811e+001
3.418833e+003,8.373286e+001
3.419315e+003,8.383793e+001
3.419798e+003,8.394315e+001
3.420280e+003,8.404780e+001
3.420762e+003,8.415062e+001
3.421244e+003,8.425031e+001
3.421726e+003,8.434592e+001
3.422208e+003,8.443733e+001
3.422690e+003,8.452516e+001
3.423173e+003,8.461054e+001
3.423655e+003,8.469458e+001
3.424137e+003,8.477793e+001
3.424619e+003,8.486075e+001
3.425101e+003,8.494292e+001
3.425583e+003,8.502435e+001
3.426065e+003,8.510543e+001
3.426548e+003,8.518706e+001
3.427030e+003,8.527032e+001
3.427512e+003,8.535595e+001
3.427994e+003,8.544394e+001
3.428476e+003,8.553333e+001
3.428958e+003,8.562238e+001
3.429440e+003,8.570936e+001
3.429923e+003,8.579287e+001
3.430405e+003,8.587245e+001
3.430887e+003,8.594851e+001
3.431369e+003,8.602193e+001
3.431851e+003,8.609370e+001
3.432333e+003,8.616453e+001
3.432815e+003,8.623451e+001
3.433297e+003,8.630350e+001
3.433780e+003,8.637109e+001
3.434262e+003,8.643713e+001
3.434744e+003,8.650164e+001
3.435226e+003,8.656480e+001
3.435708e+003,8.662697e+001
3.436190e+003,8.668846e+001
3.436672e+003,8.674966e+001
3.437155e+003,8.681111e+001
3.437637e+003,8.687345e+001
3.438119e+003,8.693723e+001
3.438601e+003,8.700269e+001
3.439083e+003,8.706934e+001
3.439565e+003,8.713596e+001
3.440047e+003,8.720078e+001
3.440530e+003,8.726205e+001
3.441012e+003,8.731882e+001
3.441494e+003,8.737124e+001
3.441976e+003,8.742091e+001
3.442458e+003,8.747018e+001
3.442940e+003,8.752157e+001
3.443422e+003,8.757656e+001
3.443905e+003,8.763537e+001
3.444387e+003,8.769669e+001
3.444869e+003,8.775844e+001
3.445351e+003,8.781830e+001
3.445833e+003,8.787452e+001
3.446315e+003,8.792643e+001
3.446797e+003,8.797429e+001
3.447280e+003,8.801906e+001
3.447762e+003,8.806187e+001
3.448244e+003,8.810361e+001
3.448726e+003,8.814473e+001
3.449208e+003,8.818556e+001
3.449690e+003,8.822622e+001
3.450172e+003,8.826705e+001
3.450654e+003,8.830838e+001
3.451136e+003,8.835042e+001
3.451619e+003,8.839310e+001
3.452101e+003,8.843600e+001
3.452583e+003,8.847852e+001
3.453065e+003,8.852003e+001
3.453547e+003,8.856029e+001
3.454029e+003,8.859933e+001
3.454511e+003,8.863759e+001
3.454994e+003,8.867555e+001
3.455476e+003,8.871370e+001
3.455958e+003,8.875228e+001
3.456440e+003,8.879135e+001
3.456922e+003,8.883100e+001
3.457404e+003,8.887141e+001
3.457886e+003,8.891290e+001
3.458369e+003,8.895574e+001
3.458851e+003,8.900004e+001
3.459333e+003,8.904543e+001
3.459815e+003,8.909107e+001
3.460297e+003,8.913596e+001
3.460779e+003,8.917906e+001
3.461261e+003,8.921972e+001
3.461744e+003,8.925782e+001
3.462226e+003,8.929384e+001
3.462708e+003,8.932854e+001
3.463190e+003,8.936278e+001
3.463672e+003,8.939709e+001
3.464154e+003,8.943176e+001
3.464636e+003,8.946682e+001
3.465119e+003,8.950230e+001
3.465601e+003,8.953823e+001
3.466083e+003,8.957491e+001
3.466565e+003,8.961260e+001
3.467047e+003,8.965150e+001
3.467529e+003,8.969151e+001
3.468011e+003,8.973206e+001
3.468493e+003,8.977240e+001
3.468976e+003,8.981154e+001
3.469458e+003,8.984873e+001
3.469940e+003,8.988361e+001
3.470422e+003,8.991638e+001
3.470904e+003,8.994778e+001
3.471386e+003,8.997893e+001
3.471868e+003,9.001105e+001
3.472351e+003,9.004514e+001
3.472833e+003,9.008165e+001
3.473315e+003,9.012039e+001
3.473797e+003,9.016054e+001
3.474279e+003,9.020090e+001
3.474761e+003,9.024013e+001
3.475243e+003,9.027727e+001
3.475726e+003,9.031195e+001
3.476208e+003,9.034454e+001
3.476690e+003,9.037608e+001
3.477172e+003,9.040790e+001
3.477654e+003,9.044139e+001
3.478136e+003,9.047752e+001
3.478618e+003,9.051672e+001
3.479101e+003,9.055862e+001
3.479583e+003,9.060224e+001
3.480065e+003,9.064611e+001
3.480547e+003,9.068861e+001
3.481029e+003,9.072821e+001
3.481511e+003,9.076391e+001
3.481993e+003,9.079540e+001
3.482476e+003,9.082314e+001
3.482958e+003,9.084823e+001
3.483440e+003,9.087202e+001
3.483922e+003,9.089584e+001
3.484404e+003,9.092067e+001
3.484886e+003,9.094683e+001
3.485368e+003,9.097417e+001
3.485850e+003,9.100208e+001
3.486333e+003,9.102987e+001
3.486815e+003,9.105696e+001
3.487297e+003,9.108303e+001
3.487779e+003,9.110812e+001
3.488261e+003,9.113240e+001
3.488743e+003,9.115617e+001
3.489225e+003,9.117970e+001
3.489708e+003,9.120324e+001
3.490190e+003,9.122713e+001
3.490672e+003,9.125179e+001
3.491154e+003,9.127781e+001
3.491636e+003,9.130562e+001
3.492118e+003,9.133546e+001
3.492600e+003,9.136710e+001
3.493083e+003,9.139986e+001
3.493565e+003,9.143275e+001
3.494047e+003,9.146494e+001
3.494529e+003,9.149588e+001
3.495011e+003,9.152555e+001
3.495493e+003,9.155430e+001
3.495975e+003,9.158261e+001
3.496458e+003,9.161072e+001
3.496939e+003,9.163847e+001
3.497422e+003,9.166539e+001
3.497904e+003,9.169093e+001
3.498386e+003,9.171497e+001
3.498868e+003,9.173793e+001
3.499350e+003,9.176081e+001
3.499833e+003,9.178477e+001
3.500314e+003,9.181064e+001
3.500797e+003,9.183852e+001
3.501279e+003,9.186754e+001
3.501761e+003,9.189613e+001
3.502243e+003,9.192261e+001
3.502725e+003,9.194573e+001
3.503207e+003,9.196531e+001
3.503689e+003,9.198220e+001
3.504172e+003,9.199798e+001
3.504654e+003,9.201441e+001
3.505136e+003,9.203291e+001
3.505618e+003,9.205420e+001
3.506100e+003,9.207840e+001
3.506582e+003,9.210517e+001
3.507064e+003,9.213400e+001
3.507547e+003,9.216405e+001
3.508029e+003,9.219437e+001
3.508511e+003,9.222390e+001
3.508993e+003,9.225138e+001
3.509475e+003,9.227591e+001
3.509957e+003,9.229721e+001
3.510439e+003,9.231574e+001
3.510922e+003,9.233288e+001
3.511404e+003,9.235034e+001
3.511886e+003,9.236968e+001
3.512368e+003,9.239190e+001
3.512850e+003,9.241713e+001
3.513332e+003,9.244460e+001
3.513814e+003,9.247313e+001
3.514296e+003,9.250145e+001
3.514779e+003,9.252873e+001
3.515261e+003,9.255471e+001
3.515743e+003,9.257953e+001
3.516225e+003,9.260357e+001
3.516707e+003,9.262709e+001
3.517189e+003,9.265041e+001
3.517671e+003,9.267365e+001
3.518154e+003,9.269707e+001
3.518636e+003,9.272108e+001
3.519118e+003,9.274604e+001
3.519600e+003,9.277184e+001
3.520082e+003,9.279788e+001
3.520564e+003,9.282288e+001
3.521046e+003,9.284518e+001
3.521529e+003,9.286339e+001
3.522011e+003,9.287714e+001
3.522493e+003,9.288741e+001
3.522975e+003,9.289664e+001
3.523457e+003,9.290793e+001
3.523939e+003,9.292396e+001
3.524421e+003,9.294612e+001
3.524904e+003,9.297395e+001
3.525386e+003,9.300542e+001
3.525868e+003,9.303790e+001
3.526350e+003,9.306898e+001
3.526832e+003,9.309736e+001
3.527314e+003,9.312302e+001
3.527796e+003,9.314705e+001
3.528279e+003,9.317084e+001
3.528761e+003,9.319534e+001
3.529243e+003,9.322063e+001
3.529725e+003,9.324593e+001
3.530207e+003,9.327008e+001
3.530689e+003,9.329231e+001
3.531171e+003,9.331233e+001
3.531653e+003,9.333077e+001
3.532135e+003,9.334869e+001
3.532618e+003,9.336723e+001
3.533100e+003,9.338710e+001
3.533582e+003,9.340855e+001
3.534064e+003,9.343135e+001
3.534546e+003,9.345508e+001
3.535028e+003,9.347945e+001
3.535510e+003,9.350436e+001
3.535993e+003,9.352978e+001
3.536475e+003,9.355555e+001
3.536957e+003,9.358114e+001
3.537439e+003,9.360567e+001
3.537921e+003,9.362804e+001
3.538403e+003,9.364740e+001
3.538885e+003,9.366348e+001
