3.301674e+003,8.235110e+001
3.302156e+003,8.236082e+001
3.302638e+003,8.236881e+001
3.303121e+003,8.237657e+001
3.303603e+003,8.238553e+001
3.304085e+003,8.239672e+001
3.304567e+003,8.241013e+001
3.305049e+003,8.242484e+001
3.305531e+003,8.243939e+001
3.306013e+003,8.245268e+001
3.306495e+003,8.246436e+001
3.306978e+003,8.247511e+001
3.307460e+003,8.248630e+001
3.307942e+003,8.249945e+001
3.308424e+003,8.251559e+001
3.308906e+003,8.253491e+001
3.309388e+003,8.255690e+001
3.309870e+003,8.258076e+001
3.310353e+003,8.260593e+001
3.310835e+003,8.263226e+001
3.311317e+003,8.266002e+001
3.311799e+003,8.268963e+001
3.312281e+003,8.272119e+001
3.312763e+003,8.275431e+001
3.313245e+003,8.278818e+001
3.313728e+003,8.282191e+001
3.314210e+003,8.285481e+001
3.314692e+003,8.288651e+001
3.315174e+003,8.291696e+001
3.315656e+003,8.294621e+001
3.316138e+003,8.297407e+001
3.316620e+003,8.300020e+001
3.317103e+003,8.302441e+001
3.317584e+003,8.304674e+001
3.318067e+003,8.306797e+001
3.318549e+003,8.308924e+001
3.319031e+003,8.311196e+001
3.319513e+003,8.313703e+001
3.319995e+003,8.316460e+001
3.320478e+003,8.319390e+001
3.320959e+003,8.322352e+001
3.321442e+003,8.325204e+001
3.321924e+003,8.327860e+001
3.322406e+003,8.330299e+001
3.322888e+003,8.332584e+001
3.323370e+003,8.334801e+001
3.323852e+003,8.337028e+001
3.324334e+003,8.339303e+001
3.324817e+003,8.341635e+001
3.325299e+003,8.344022e+001
3.325781e+003,8.346485e+001
3.326263e+003,8.349072e+001
3.326745e+003,8.351845e+001
3.327227e+003,8.354827e+001
3.327709e+003,8.357993e+001
3.328192e+003,8.361243e+001
3.328674e+003,8.364442e+001
3.329156e+003,8.367455e+001
3.329638e+003,8.370197e+001
3.330120e+003,8.372657e+001
3.330602e+003,8.374874e+001
3.331084e+003,8.376907e+001
3.331567e+003,8.378790e+001
3.332049e+003,8.380520e+001
3.332531e+003,8.382063e+001
3.333013e+003,8.383392e+001
3.333495e+003,8.384530e+001
3.333977e+003,8.385550e+001
3.334459e+003,8.386565e+001
3.334941e+003,8.387697e+001
3.335424e+003,8.389016e+001
3.335906e+003,8.390533e+001
3.336388e+003,8.392199e+001
3.336870e+003,8.393941e+001
3.337352e+003,8.395698e+001
3.337834e+003,8.397437e+001
3.338316e+003,8.399162e+001
3.338799e+003,8.400886e+001
3.339281e+003,8.402598e+001
3.339763e+003,8.404267e+001
3.340245e+003,8.405845e+001
3.340727e+003,8.407297e+001
3.341209e+003,8.408628e+001
3.341691e+003,8.409876e+001
3.342174e+003,8.411107e+001
3.342656e+003,8.412384e+001
3.343138e+003,8.413731e+001
3.343620e+003,8.415133e+001
3.344102e+003,8.416575e+001
3.344584e+003,8.418042e+001
3.345066e+003,8.419572e+001
3.345549e+003,8.421237e+001
3.346031e+003,8.423107e+001
3.346513e+003,8.425213e+001
3.346995e+003,8.427516e+001
3.347477e+003,8.429900e+001
3.347959e+003,8.432242e+001
3.348441e+003,8.434442e+001
3.348924e+003,8.436497e+001
3.349406e+003,8.438501e+001
3.349888e+003,8.440601e+001
3.350370e+003,8.442932e+001
3.350852e+003,8.445547e+001
3.351334e+003,8.448367e+001
3.351816e+003,8.451213e+001
3.352298e+003,8.453854e+001
3.352781e+003,8.456103e+001
3.353263e+003,8.457870e+001
3.353745e+003,8.459212e+001
3.354227e+003,8.460291e+001
3.354709e+003,8.461337e+001
3.355191e+003,8.462576e+001
3.355673e+003,8.464172e+001
3.356156e+003,8.466202e+001
3.356638e+003,8.468651e+001
3.357120e+003,8.471428e+001
3.357602e+003,8.474393e+001
3.358084e+003,8.477384e+001
3.358566e+003,8.480254e+001
3.359048e+003,8.482909e+001
3.359531e+003,8.485317e+001
3.360013e+003,8.487533e+001
3.360495e+003,8.489658e+001
3.360977e+003,8.491804e+001
3.361459e+003,8.494036e+001
3.361941e+003,8.496340e+001
3.362423e+003,8.498610e+001
3.362906e+003,8.500703e+001
3.363388e+003,8.502487e+001
3.363870e+003,8.503913e+001
3.364352e+003,8.505049e+001
3.364834e+003,8.506055e+001
3.365316e+003,8.507124e+001
3.365798e+003,8.508411e+001
3.366281e+003,8.509975e+001
3.366763e+003,8.511774e+001
3.367245e+003,8.513695e+001
3.367727e+003,8.515607e+001
3.368209e+003,8.517411e+001
3.368691e+003,8.519062e+001
3.369173e+003,8.520536e+001
3.369655e+003,8.521822e+001
3.370137e+003,8.522877e+001
3.370620e+003,8.523647e+001
3.371102e+003,8.524087e+001
3.371584e+003,8.524203e+001
3.372066e+003,8.524075e+001
3.372548e+003,8.523819e+001
3.373030e+003,8.523561e+001
3.373512e+003,8.523358e+001
3.373995e+003,8.523180e+001
3.374477e+003,8.522918e+001
3.374959e+003,8.522441e+001
3.375441e+003,8.521667e+001
3.375923e+003,8.520610e+001
3.376405e+003,8.519378e+001
3.376887e+003,8.518119e+001
3.377370e+003,8.516956e+001
3.377852e+003,8.515921e+001
3.378334e+003,8.514959e+001
3.378816e+003,8.513954e+001
3.379298e+003,8.512809e+001
3.379780e+003,8.511488e+001
3.380262e+003,8.510043e+001
3.380745e+003,8.508565e+001
3.381227e+003,8.507135e+001
3.381709e+003,8.505773e+001
3.382191e+003,8.504428e+001
3.382673e+003,8.503028e+001
3.383155e+003,8.501529e+001
3.383637e+003,8.499969e+001
3.384120e+003,8.498461e+001
3.384602e+003,8.497146e+001
3.385084e+003,8.496117e+001
3.385566e+003,8.495360e+001
3.386048e+003,8.494764e+001
3.386530e+003,8.494168e+001
3.387012e+003,8.493445e+001
3.387494e+003,8.492569e+001
3.387977e+003,8.491627e+001
3.388459e+003,8.490755e+001
3.388941e+003,8.490070e+001
3.389423e+003,8.489584e+001
3.389905e+003,8.489203e+001
3.390387e+003,8.488773e+001
3.390869e+003,8.488184e+001
3.391352e+003,8.487443e+001
3.391834e+003,8.486708e+001
3.392316e+003,8.486229e+001
3.392798e+003,8.486234e+001
3.393280e+003,8.486815e+001
3.393762e+003,8.487881e+001
3.394244e+003,8.489181e+001
3.394727e+003,8.490401e+001
3.395209e+003,8.491286e+001
3.395691e+003,8.491724e+001
3.396173e+003,8.491759e+001
3.396655e+003,8.491545e+001
3.397137e+003,8.491259e+001
3.397619e+003,8.491033e+001
3.398102e+003,8.490907e+001
3.398583e+003,8.490856e+001
3.399066e+003,8.490842e+001
3.399548e+003,8.490837e+001
3.400030e+003,8.490848e+001
3.400512e+003,8.490899e+001
3.400994e+003,8.491002e+001
3.401477e+003,8.491150e+001
3.401958e+003,8.491328e+001
3.402441e+003,8.491557e+001
3.402923e+003,8.491908e+001
3.403405e+003,8.492520e+001
3.403887e+003,8.493542e+001
3.404369e+003,8.495090e+001
3.404851e+003,8.497183e+001
3.405333e+003,8.499754e+001
3.405816e+003,8.502668e+001
3.406298e+003,8.505805e+001
3.406780e+003,8.509114e+001
3.407262e+003,8.512640e+001
3.407744e+003,8.516502e+001
3.408226e+003,8.520840e+001
3.408708e+003,8.525746e+001
3.409191e+003,8.531258e+001
3.409673e+003,8.537370e+001
3.410155e+003,8.544061e+001
3.410637e+003,8.551348e+001
3.411119e+003,8.559256e+001
3.411601e+003,8.567798e+001
3.412083e+003,8.576920e+001
3.412566e+003,8.586468e+001
3.413048e+003,8.596201e+001
3.413530e+003,8.605866e+001
3.414012e+003,8.615278e+001
3.414494e+003,8.624378e+001
3.414976e+003,8.633234e+001
3.415458e+003,8.641991e+001
3.415940e+003,8.650776e+001
3.416423e+003,8.659635e+001
3.416905e+003,8.668497e+001
3.417387e+003,8.677229e+001
3.417869e+003,8.685689e+001
3.418351e+003,8.693830e+001
3.418833e+003,8.701715e+001
3.419315e+003,8.709497e+001
3.419798e+003,8.717365e+001
3.420280e+003,8.725467e+001
3.420762e+003,8.733869e+001
3.421244e+003,8.742558e+001
3.421726e+003,8.751481e+001
3.422208e+003,8.760579e+001
3.422690e+003,8.769801e+001
3.423173e+003,8.779096e+001
3.423655e+003,8.788370e+001
3.424137e+003,8.797490e+001
3.424619e+003,8.806277e+001
3.425101e+003,8.814590e+001
3.425583e+003,8.822361e+001
3.426065e+003,8.829630e+001
3.426548e+003,8.836524e+001
3.427030e+003,8.843208e+001
3.427512e+003,8.849791e+001
3.427994e+003,8.856293e+001
3.428476e+003,8.862656e+001
3.428958e+003,8.868802e+001
3.429440e+003,8.874715e+001
3.429923e+003,8.880495e+001
3.430405e+003,8.886344e+001
3.430887e+003,8.892484e+001
3.431369e+003,8.899071e+001
3.431851e+003,8.906106e+001
3.432333e+003,8.913428e+001
3.432815e+003,8.920786e+001
3.433297e+003,8.927938e+001
3.433780e+003,8.934742e+001
3.434262e+003,8.941182e+001
3.434744e+003,8.947336e+001
3.435226e+003,8.953287e+001
3.435708e+003,8.959055e+001
3.436190e+003,8.964570e+001
3.436672e+003,8.969709e+001
3.437155e+003,8.974371e+001
3.437637e+003,8.978553e+001
3.438119e+003,8.982362e+001
3.438601e+003,8.985984e+001
3.439083e+003,8.989601e+001
3.439565e+003,8.993324e+001
3.440047e+003,8.997172e+001
3.440530e+003,9.001109e+001
3.441012e+003,9.005113e+001
3.441494e+003,9.009225e+001
3.441976e+003,9.013548e+001
3.442458e+003,9.018157e+001
3.442940e+003,9.023035e+001
3.443422e+003,9.027988e+001
3.443905e+003,9.032678e+001
3.444387e+003,9.036755e+001
3.444869e+003,9.039989e+001
3.445351e+003,9.042422e+001
3.445833e+003,9.044406e+001
3.446315e+003,9.046506e+001
3.446797e+003,9.049328e+001
3.447280e+003,9.053271e+001
3.447762e+003,9.058387e+001
3.448244e+003,9.064380e+001
3.448726e+003,9.070755e+001
3.449208e+003,9.077025e+001
3.449690e+003,9.082851e+001
3.450172e+003,9.088134e+001
3.450654e+003,9.092945e+001
3.451136e+003,9.097449e+001
3.451619e+003,9.101779e+001
3.452101e+003,9.106005e+001
3.452583e+003,9.110114e+001
3.453065e+003,9.114072e+001
3.453547e+003,9.117874e+001
3.454029e+003,9.121555e+001
3.454511e+003,9.125151e+001
3.454994e+003,9.128664e+001
3.455476e+003,9.132035e+001
3.455958e+003,9.135161e+001
3.456440e+003,9.137951e+001
3.456922e+003,9.140411e+001
3.457404e+003,9.142663e+001
3.457886e+003,9.144909e+001
3.458369e+003,9.147354e+001
3.458851e+003,9.150097e+001
3.459333e+003,9.153081e+001
3.459815e+003,9.156111e+001
3.460297e+003,9.158955e+001
3.460779e+003,9.161469e+001
3.461261e+003,9.163670e+001
3.461744e+003,9.165762e+001
3.462226e+003,9.168040e+001
3.462708e+003,9.170746e+001
3.463190e+003,9.173975e+001
3.463672e+003,9.177629e+001
3.464154e+003,9.181479e+001
3.464636e+003,9.185299e+001
3.465119e+003,9.188942e+001
3.465601e+003,9.192429e+001
3.466083e+003,9.195889e+001
3.466565e+003,9.199476e+001
3.467047e+003,9.203264e+001
3.467529e+003,9.207198e+001
3.468011e+003,9.211114e+001
3.468493e+003,9.214824e+001
3.468976e+003,9.218205e+001
3.469458e+003,9.221261e+001
3.469940e+003,9.224101e+001
3.470422e+003,9.226871e+001
3.470904e+003,9.229684e+001
3.471386e+003,9.232561e+001
3.471868e+003,9.235435e+001
3.472351e+003,9.238219e+001
3.472833e+003,9.240862e+001
3.473315e+003,9.243398e+001
3.473797e+003,9.245939e+001
3.474279e+003,9.248621e+001
3.474761e+003,9.251537e+001
3.475243e+003,9.254684e+001
3.475726e+003,9.257962e+001
3.476208e+003,9.261223e+001
3.476690e+003,9.264301e+001
3.477172e+003,9.267067e+001
3.477654e+003,9.269437e+001
3.478136e+003,9.271345e+001
3.478618e+003,9.272746e+001
3.479101e+003,9.273631e+001
3.479583e+003,9.274062e+001
3.480065e+003,9.274224e+001
3.480547e+003,9.274447e+001
3.481029e+003,9.275152e+001
3.481511e+003,9.276749e+001
3.481993e+003,9.279491e+001
3.482476e+003,9.283359e+001
3.482958e+003,9.288056e+001
3.483440e+003,9.293092e+001
3.483922e+003,9.297934e+001
3.484404e+003,9.302176e+001
3.484886e+003,9.305634e+001
3.485368e+003,9.308350e+001
3.485850e+003,9.310549e+001
3.486333e+003,9.312506e+001
3.486815e+003,9.314459e+001
3.487297e+003,9.316552e+001
3.487779e+003,9.318825e+001
3.488261e+003,9.321268e+001
3.488743e+003,9.323859e+001
3.489225e+003,9.326594e+001
3.489708e+003,9.329475e+001
3.490190e+003,9.332476e+001
3.490672e+003,9.335517e+001
3.491154e+003,9.338474e+001
3.491636e+003,9.341188e+001
3.492118e+003,9.343536e+001
3.492600e+003,9.345453e+001
3.493083e+003,9.346958e+001
3.493565e+003,9.348142e+001
3.494047e+003,9.349133e+001
3.494529e+003,9.350073e+001
3.495011e+003,9.351099e+001
3.495493e+003,9.352345e+001
3.495975e+003,9.353927e+001
3.496458e+003,9.355922e+001
3.496939e+003,9.358346e+001
3.497422e+003,9.361111e+001
3.497904e+003,9.364001e+001
3.498386e+003,9.366729e+001
3.498868e+003,9.368952e+001
3.499350e+003,9.370380e+001
3.499833e+003,9.370853e+001
3.500314e+003,9.370376e+001
3.500797e+003,9.369137e+001
3.501279e+003,9.367481e+001
3.501761e+003,9.365849e+001
3.502243e+003,9.364732e+001
3.502725e+003,9.364565e+001
3.503207e+003,9.365694e+001
3.503689e+003,9.368284e+001
3.504172e+003,9.372276e+001
3.504654e+003,9.377367e+001
3.505136e+003,9.383034e+001
3.505618e+003,9.388622e+001
3.506100e+003,9.393468e+001
3.506582e+003,9.397050e+001
3.507064e+003,9.399100e+001
3.507547e+003,9.399693e+001
3.508029e+003,9.399237e+001
3.508511e+003,9.398392e+001
3.508993e+003,9.397878e+001
3.509475e+003,9.398267e+001
3.509957e+003,9.399837e+001
3.510439e+003,9.402544e+001
3.510922e+003,9.406109e+001
3.511404e+003,9.410159e+001
3.511886e+003,9.414378e+001
3.512368e+003,9.418559e+001
3.512850e+003,9.422606e+001
3.513332e+003,9.426491e+001
3.513814e+003,9.430166e+001
3.514296e+003,9.433545e+001
3.514779e+003,9.436503e+001
3.515261e+003,9.438908e+001
3.515743e+003,9.440685e+001
3.516225e+003,9.441843e+001
3.516707e+003,9.442486e+001
3.517189e+003,9.442771e+001
3.517671e+003,9.442890e+001
3.518154e+003,9.442976e+001
3.518636e+003,9.443106e+001
3.519118e+003,9.443265e+001
3.519600e+003,9.443369e+001
3.520082e+003,9.443304e+001
3.520564e+003,9.442972e+001
3.521046e+003,9.442354e+001
3.521529e+003,9.441543e+001
3.522011e+003,9.440752e+001
3.522493e+003,9.440285e+001
3.522975e+003,9.440425e+001
3.523457e+003,9.441328e+001
3.523939e+003,9.442932e+001
3.524421e+003,9.444948e+001
3.524904e+003,9.446935e+001
3.525386e+003,9.448473e+001
3.525868e+003,9.449315e+001
3.526350e+003,9.449513e+001
3.526832e+003,9.449419e+001
3.527314e+003,9.449599e+001
3.527796e+003,9.450630e+001
3.528279e+003,9.452917e+001
3.528761e+003,9.456556e+001
3.529243e+003,9.461353e+001
3.529725e+003,9.466941e+001
3.530207e+003,9.472932e+001
3.530689e+003,9.479006e+001
3.531171e+003,9.484948e+001
3.531653e+003,9.490565e+001
3.532135e+003,9.495628e+001
3.532618e+003,9.499840e+001
3.533100e+003,9.502876e+001
3.533582e+003,9.504498e+001
3.534064e+003,9.504702e+001
3.534546e+003,9.503787e+001
3.535028e+003,9.502348e+001
3.535510e+003,9.501137e+001
3.535993e+003,9.500818e+001
3.536475e+003,9.501743e+001
3.536957e+003,9.503862e+001
3.537439e+003,9.506766e+001
3.537921e+003,9.509911e+001
3.538403e+003,9.512820e+001
3.538885e+003,9.515228e+001
