3.301674e+003,7.909614e+001
3.302156e+003,7.910854e+001
3.302638e+003,7.911953e+001
3.303121e+003,7.912983e+001
3.303603e+003,7.914058e+001
3.304085e+003,7.915304e+001
3.304567e+003,7.916790e+001
3.305049e+003,7.918512e+001
3.305531e+003,7.920392e+001
3.306013e+003,7.922331e+001
3.306495e+003,7.924262e+001
3.306978e+003,7.926171e+001
3.307460e+003,7.928095e+001
3.307942e+003,7.930103e+001
3.308424e+003,7.932240e+001
3.308906e+003,7.934502e+001
3.309388e+003,7.936858e+001
3.309870e+003,7.939253e+001
3.310353e+003,7.941675e+001
3.310835e+003,7.944152e+001
3.311317e+003,7.946759e+001
3.311799e+003,7.949569e+001
3.312281e+003,7.952607e+001
3.312763e+003,7.955838e+001
3.313245e+003,7.959152e+001
3.313728e+003,7.962421e+001
3.314210e+003,7.965540e+001
3.314692e+003,7.968469e+001
3.315174e+003,7.971235e+001
3.315656e+003,7.973917e+001
3.316138e+003,7.976595e+001
3.316620e+003,7.979323e+001
3.317103e+003,7.982108e+001
3.317584e+003,7.984928e+001
3.318067e+003,7.987759e+001
3.318549e+003,7.990588e+001
3.319031e+003,7.993443e+001
3.319513e+003,7.996359e+001
3.319995e+003,7.999371e+001
3.320478e+003,8.002480e+001
3.320959e+003,8.005648e+001
3.321442e+003,8.008829e+001
3.321924e+003,8.011953e+001
3.322406e+003,8.014964e+001
3.322888e+003,8.017809e+001
3.323370e+003,8.020457e+001
3.323852e+003,8.022873e+001
3.324334e+003,8.025047e+001
3.324817e+003,8.027003e+001
3.325299e+003,8.028823e+001
3.325781e+003,8.030656e+001
3.326263e+003,8.032687e+001
3.326745e+003,8.035094e+001
3.327227e+003,8.037985e+001
3.327709e+003,8.041356e+001
3.328192e+003,8.045081e+001
3.328674e+003,8.048949e+001
3.329156e+003,8.052724e+001
3.329638e+003,8.056224e+001
3.330120e+003,8.059342e+001
3.330602e+003,8.062079e+001
3.331084e+003,8.064492e+001
3.331567e+003,8.066653e+001
3.332049e+003,8.068622e+001
3.332531e+003,8.070419e+001
3.333013e+003,8.072047e+001
3.333495e+003,8.073521e+001
3.333977e+003,8.074871e+001
3.334459e+003,8.076154e+001
3.334941e+003,8.077431e+001
3.335424e+003,8.078733e+001
3.335906e+003,8.080067e+001
3.336388e+003,8.081410e+001
3.336870e+003,8.082736e+001
3.337352e+003,8.084040e+001
3.337834e+003,8.085361e+001
3.338316e+003,8.086759e+001
3.338799e+003,8.088296e+001
3.339281e+003,8.090006e+001
3.339763e+003,8.091887e+001
3.340245e+003,8.093892e+001
3.340727e+003,8.095963e+001
3.341209e+003,8.098058e+001
3.341691e+003,8.100163e+001
3.342174e+003,8.102281e+001
3.342656e+003,8.104434e+001
3.343138e+003,8.106615e+001
3.343620e+003,8.108802e+001
3.344102e+003,8.110966e+001
3.344584e+003,8.113074e+001
3.345066e+003,8.115121e+001
3.345549e+003,8.117143e+001
3.346031e+003,8.119173e+001
3.346513e+003,8.121252e+001
3.346995e+003,8.123389e+001
3.347477e+003,8.125574e+001
3.347959e+003,8.127800e+001
3.348441e+003,8.130075e+001
3.348924e+003,8.132440e+001
3.349406e+003,8.134953e+001
3.349888e+003,8.137656e+001
3.350370e+003,8.140533e+001
3.350852e+003,8.143489e+001
3.351334e+003,8.146370e+001
3.351816e+003,8.149015e+001
3.352298e+003,8.151300e+001
3.352781e+003,8.153206e+001
3.353263e+003,8.154818e+001
3.353745e+003,8.156301e+001
3.354227e+003,8.157841e+001
3.354709e+003,8.159590e+001
3.355191e+003,8.161628e+001
3.355673e+003,8.163957e+001
3.356156e+003,8.166542e+001
3.356638e+003,8.169327e+001
3.357120e+003,8.172268e+001
3.357602e+003,8.175321e+001
3.358084e+003,8.178440e+001
3.358566e+003,8.181557e+001
3.359048e+003,8.184598e+001
3.359531e+003,8.187506e+001
3.360013e+003,8.190266e+001
3.360495e+003,8.192922e+001
3.360977e+003,8.195549e+001
3.361459e+003,8.198215e+001
3.361941e+003,8.200936e+001
3.362423e+003,8.203644e+001
3.362906e+003,8.206216e+001
3.363388e+003,8.208524e+001
3.363870e+003,8.210491e+001
3.364352e+003,8.212154e+001
3.364834e+003,8.213648e+001
3.365316e+003,8.215152e+001
3.365798e+003,8.216825e+001
3.366281e+003,8.218736e+001
3.366763e+003,8.220838e+001
3.367245e+003,8.223017e+001
3.367727e+003,8.225134e+001
3.368209e+003,8.227099e+001
3.368691e+003,8.228891e+001
3.369173e+003,8.230524e+001
3.369655e+003,8.232019e+001
3.370137e+003,8.233337e+001
3.370620e+003,8.234386e+001
3.371102e+003,8.235042e+001
3.371584e+003,8.235224e+001
3.372066e+003,8.234940e+001
3.372548e+003,8.234314e+001
3.373030e+003,8.233532e+001
3.373512e+003,8.232794e+001
3.373995e+003,8.232216e+001
3.374477e+003,8.231806e+001
3.374959e+003,8.231477e+001
3.375441e+003,8.231097e+001
3.375923e+003,8.230568e+001
3.376405e+003,8.229849e+001
3.376887e+003,8.228974e+001
3.377370e+003,8.227995e+001
3.377852e+003,8.226941e+001
3.378334e+003,8.225802e+001
3.378816e+003,8.224524e+001
3.379298e+003,8.223067e+001
3.379780e+003,8.221442e+001
3.380262e+003,8.219728e+001
3.380745e+003,8.218038e+001
3.381227e+003,8.216483e+001
3.381709e+003,8.215097e+001
3.382191e+003,8.213833e+001
3.382673e+003,8.212572e+001
3.383155e+003,8.211211e+001
3.383637e+003,8.209683e+001
3.384120e+003,8.208023e+001
3.384602e+003,8.206312e+001
3.385084e+003,8.204642e+001
3.385566e+003,8.203049e+001
3.386048e+003,8.201498e+001
3.386530e+003,8.199910e+001
3.387012e+003,8.198225e+001
3.387494e+003,8.196477e+001
3.387977e+003,8.194786e+001
3.388459e+003,8.193342e+001
3.388941e+003,8.192310e+001
3.389423e+003,8.191746e+001
3.389905e+003,8.191565e+001
3.390387e+003,8.191568e+001
3.390869e+003,8.191520e+001
3.391352e+003,8.191264e+001
3.391834e+003,8.190778e+001
3.392316e+003,8.190184e+001
3.392798e+003,8.189677e+001
3.393280e+003,8.189429e+001
3.393762e+003,8.189508e+001
3.394244e+003,8.189854e+001
3.394727e+003,8.190323e+001
3.395209e+003,8.190748e+001
3.395691e+003,8.191032e+001
3.396173e+003,8.191148e+001
3.396655e+003,8.191147e+001
3.397137e+003,8.191089e+001
3.397619e+003,8.191011e+001
3.398102e+003,8.190897e+001
3.398583e+003,8.190699e+001
3.399066e+003,8.190385e+001
3.399548e+003,8.189961e+001
3.400030e+003,8.189484e+001
3.400512e+003,8.189050e+001
3.400994e+003,8.188747e+001
3.401477e+003,8.188644e+001
3.401958e+003,8.188763e+001
3.402441e+003,8.189127e+001
3.402923e+003,8.189772e+001
3.403405e+003,8.190767e+001
3.403887e+003,8.192197e+001
3.404369e+003,8.194135e+001
3.404851e+003,8.196595e+001
3.405333e+003,8.199541e+001
3.405816e+003,8.202892e+001
3.406298e+003,8.206568e+001
3.406780e+003,8.210541e+001
3.407262e+003,8.214847e+001
3.407744e+003,8.219557e+001
3.408226e+003,8.224763e+001
3.408708e+003,8.230499e+001
3.409191e+003,8.236758e+001
3.409673e+003,8.243495e+001
3.410155e+003,8.250671e+001
3.410637e+003,8.258282e+001
3.411119e+003,8.266368e+001
3.411601e+003,8.274976e+001
3.412083e+003,8.284100e+001
3.412566e+003,8.293658e+001
3.413048e+003,8.303484e+001
3.413530e+003,8.313369e+001
3.414012e+003,8.323150e+001
3.414494e+003,8.332755e+001
3.414976e+003,8.342229e+001
3.415458e+003,8.351695e+001
3.415940e+003,8.361281e+001
3.416423e+003,8.371056e+001
3.416905e+003,8.380995e+001
3.417387e+003,8.390987e+001
3.417869e+003,8.400899e+001
3.418351e+003,8.410638e+001
3.418833e+003,8.420181e+001
3.419315e+003,8.429583e+001
3.419798e+003,8.438932e+001
3.420280e+003,8.448301e+001
3.420762e+003,8.457721e+001
3.421244e+003,8.467182e+001
3.421726e+003,8.476656e+001
3.422208e+003,8.486129e+001
3.422690e+003,8.495618e+001
3.423173e+003,8.505141e+001
3.423655e+003,8.514694e+001
3.424137e+003,8.524222e+001
3.424619e+003,8.533611e+001
3.425101e+003,8.542743e+001
3.425583e+003,8.551527e+001
3.426065e+003,8.559945e+001
3.426548e+003,8.568062e+001
3.427030e+003,8.575983e+001
3.427512e+003,8.583804e+001
3.427994e+003,8.591562e+001
3.428476e+003,8.599220e+001
3.428958e+003,8.606696e+001
3.429440e+003,8.613929e+001
3.429923e+003,8.620921e+001
3.430405e+003,8.627771e+001
3.430887e+003,8.634633e+001
3.431369e+003,8.641669e+001
3.431851e+003,8.648988e+001
3.432333e+003,8.656598e+001
3.432815e+003,8.664427e+001
3.433297e+003,8.672361e+001
3.433780e+003,8.680280e+001
3.434262e+003,8.688097e+001
3.434744e+003,8.695744e+001
3.435226e+003,8.703153e+001
3.435708e+003,8.710231e+001
3.436190e+003,8.716863e+001
3.436672e+003,8.722943e+001
3.437155e+003,8.728430e+001
3.437637e+003,8.733385e+001
3.438119e+003,8.737971e+001
3.438601e+003,8.742418e+001
3.439083e+003,8.746954e+001
3.439565e+003,8.751729e+001
3.440047e+003,8.756791e+001
3.440530e+003,8.762098e+001
3.441012e+003,8.767570e+001
3.441494e+003,8.773138e+001
3.441976e+003,8.778761e+001
3.442458e+003,8.784431e+001
3.442940e+003,8.790118e+001
3.443422e+003,8.795739e+001
3.443905e+003,8.801143e+001
3.444387e+003,8.806151e+001
3.444869e+003,8.810630e+001
3.445351e+003,8.814549e+001
3.445833e+003,8.818023e+001
3.446315e+003,8.821298e+001
3.446797e+003,8.824670e+001
3.447280e+003,8.828396e+001
3.447762e+003,8.832603e+001
3.448244e+003,8.837284e+001
3.448726e+003,8.842331e+001
3.449208e+003,8.847603e+001
3.449690e+003,8.852995e+001
3.450172e+003,8.858438e+001
3.450654e+003,8.863901e+001
3.451136e+003,8.869350e+001
3.451619e+003,8.874722e+001
3.452101e+003,8.879945e+001
3.452583e+003,8.884940e+001
3.453065e+003,8.889679e+001
3.453547e+003,8.894192e+001
3.454029e+003,8.898541e+001
3.454511e+003,8.902785e+001
3.454994e+003,8.906936e+001
3.455476e+003,8.910945e+001
3.455958e+003,8.914732e+001
3.456440e+003,8.918235e+001
3.456922e+003,8.921471e+001
3.457404e+003,8.924551e+001
3.457886e+003,8.927654e+001
3.458369e+003,8.930964e+001
3.458851e+003,8.934576e+001
3.459333e+003,8.938466e+001
3.459815e+003,8.942488e+001
3.460297e+003,8.946454e+001
3.460779e+003,8.950208e+001
3.461261e+003,8.953706e+001
3.461744e+003,8.957024e+001
3.462226e+003,8.960344e+001
3.462708e+003,8.963826e+001
3.463190e+003,8.967580e+001
3.463672e+003,8.971585e+001
3.464154e+003,8.975735e+001
3.464636e+003,8.979886e+001
3.465119e+003,8.983916e+001
3.465601e+003,8.987773e+001
3.466083e+003,8.991477e+001
3.466565e+003,8.995087e+001
3.467047e+003,8.998663e+001
3.467529e+003,9.002245e+001
3.468011e+003,9.005836e+001
3.468493e+003,9.009439e+001
3.468976e+003,9.013042e+001
3.469458e+003,9.016671e+001
3.469940e+003,9.020328e+001
3.470422e+003,9.024009e+001
3.470904e+003,9.027671e+001
3.471386e+003,9.031245e+001
3.471868e+003,9.034669e+001
3.472351e+003,9.037923e+001
3.472833e+003,9.041036e+001
3.473315e+003,9.044096e+001
3.473797e+003,9.047198e+001
3.474279e+003,9.050411e+001
3.474761e+003,9.053739e+001
3.475243e+003,9.057125e+001
3.475726e+003,9.060486e+001
3.476208e+003,9.063755e+001
3.476690e+003,9.066915e+001
3.477172e+003,9.069993e+001
3.477654e+003,9.073033e+001
3.478136e+003,9.076043e+001
3.478618e+003,9.078975e+001
3.479101e+003,9.081748e+001
3.479583e+003,9.084277e+001
3.480065e+003,9.086553e+001
3.480547e+003,9.088676e+001
3.481029e+003,9.090852e+001
3.481511e+003,9.093333e+001
3.481993e+003,9.096320e+001
3.482476e+003,9.099883e+001
3.482958e+003,9.103938e+001
3.483440e+003,9.108281e+001
3.483922e+003,9.112671e+001
3.484404e+003,9.116910e+001
3.484886e+003,9.120898e+001
3.485368e+003,9.124622e+001
3.485850e+003,9.128114e+001
3.486333e+003,9.131403e+001
3.486815e+003,9.134470e+001
3.487297e+003,9.137268e+001
3.487779e+003,9.139750e+001
3.488261e+003,9.141937e+001
3.488743e+003,9.143933e+001
3.489225e+003,9.145917e+001
3.489708e+003,9.148083e+001
3.490190e+003,9.150579e+001
3.490672e+003,9.153448e+001
3.491154e+003,9.156611e+001
3.491636e+003,9.159903e+001
3.492118e+003,9.163132e+001
3.492600e+003,9.166136e+001
3.493083e+003,9.168833e+001
3.493565e+003,9.171216e+001
3.494047e+003,9.173354e+001
3.494529e+003,9.175354e+001
3.495011e+003,9.177334e+001
3.495493e+003,9.179414e+001
3.495975e+003,9.181699e+001
3.496458e+003,9.184259e+001
3.496939e+003,9.187122e+001
3.497422e+003,9.190237e+001
3.497904e+003,9.193477e+001
3.498386e+003,9.196652e+001
3.498868e+003,9.199532e+001
3.499350e+003,9.201912e+001
3.499833e+003,9.203658e+001
3.500314e+003,9.204746e+001
3.500797e+003,9.205276e+001
3.501279e+003,9.205466e+001
3.501761e+003,9.205605e+001
3.502243e+003,9.206023e+001
3.502725e+003,9.207006e+001
3.503207e+003,9.208788e+001
3.503689e+003,9.211473e+001
3.504172e+003,9.215029e+001
3.504654e+003,9.219275e+001
3.505136e+003,9.223903e+001
3.505618e+003,9.228528e+001
3.506100e+003,9.232748e+001
3.506582e+003,9.236229e+001
3.507064e+003,9.238770e+001
3.507547e+003,9.240350e+001
3.508029e+003,9.241141e+001
3.508511e+003,9.241480e+001
3.508993e+003,9.241769e+001
3.509475e+003,9.242379e+001
3.509957e+003,9.243568e+001
3.510439e+003,9.245419e+001
3.510922e+003,9.247896e+001
3.511404e+003,9.250882e+001
3.511886e+003,9.254250e+001
3.512368e+003,9.257896e+001
3.512850e+003,9.261731e+001
3.513332e+003,9.265659e+001
3.513814e+003,9.269563e+001
3.514296e+003,9.273285e+001
3.514779e+003,9.276662e+001
3.515261e+003,9.279563e+001
3.515743e+003,9.281927e+001
3.516225e+003,9.283791e+001
3.516707e+003,9.285287e+001
3.517189e+003,9.286612e+001
3.517671e+003,9.287975e+001
3.518154e+003,9.289537e+001
3.518636e+003,9.291370e+001
3.519118e+003,9.293445e+001
3.519600e+003,9.295635e+001
3.520082e+003,9.297775e+001
3.520564e+003,9.299689e+001
3.521046e+003,9.301269e+001
3.521529e+003,9.302499e+001
3.522011e+003,9.303481e+001
3.522493e+003,9.304413e+001
3.522975e+003,9.305525e+001
3.523457e+003,9.306990e+001
3.523939e+003,9.308870e+001
3.524421e+003,9.311072e+001
3.524904e+003,9.313384e+001
3.525386e+003,9.315558e+001
3.525868e+003,9.317402e+001
3.526350e+003,9.318867e+001
3.526832e+003,9.320062e+001
3.527314e+003,9.321245e+001
3.527796e+003,9.322717e+001
3.528279e+003,9.324738e+001
3.528761e+003,9.327441e+001
3.529243e+003,9.330821e+001
3.529725e+003,9.334754e+001
3.530207e+003,9.339070e+001
3.530689e+003,9.343592e+001
3.531171e+003,9.348154e+001
3.531653e+003,9.352592e+001
3.532135e+003,9.356726e+001
3.532618e+003,9.360369e+001
3.533100e+003,9.363342e+001
3.533582e+003,9.365540e+001
3.534064e+003,9.366990e+001
3.534546e+003,9.367865e+001
3.535028e+003,9.368480e+001
3.535510e+003,9.369199e+001
3.535993e+003,9.370338e+001
3.536475e+003,9.372040e+001
3.536957e+003,9.374261e+001
3.537439e+003,9.376797e+001
3.537921e+003,9.379401e+001
3.538403e+003,9.381880e+001
3.538885e+003,9.384161e+001
