3.301674e+003,8.782124e+001
3.302156e+003,8.782252e+001
3.302638e+003,8.782325e+001
3.303121e+003,8.782394e+001
3.303603e+003,8.782523e+001
3.304085e+003,8.782742e+001
3.304567e+003,8.783067e+001
3.305049e+003,8.783474e+001
3.305531e+003,8.783920e+001
3.306013e+003,8.784375e+001
3.306495e+003,8.784826e+001
3.306978e+003,8.785287e+001
3.307460e+003,8.785786e+001
3.307942e+003,8.786358e+001
3.308424e+003,8.787009e+001
3.308906e+003,8.787726e+001
3.309388e+003,8.788464e+001
3.309870e+003,8.789175e+001
3.310353e+003,8.789833e+001
3.310835e+003,8.790443e+001
3.311317e+003,8.791058e+001
3.311799e+003,8.791756e+001
3.312281e+003,8.792620e+001
3.312763e+003,8.793725e+001
3.313245e+003,8.795094e+001
3.313728e+003,8.796718e+001
3.314210e+003,8.798548e+001
3.314692e+003,8.800520e+001
3.315174e+003,8.802570e+001
3.315656e+003,8.804640e+001
3.316138e+003,8.806689e+001
3.316620e+003,8.808688e+001
3.317103e+003,8.810619e+001
3.317584e+003,8.812494e+001
3.318067e+003,8.814333e+001
3.318549e+003,8.816186e+001
3.319031e+003,8.818118e+001
3.319513e+003,8.820192e+001
3.319995e+003,8.822456e+001
3.320478e+003,8.824921e+001
3.320959e+003,8.827556e+001
3.321442e+003,8.830295e+001
3.321924e+003,8.833044e+001
3.322406e+003,8.835716e+001
3.322888e+003,8.838234e+001
3.323370e+003,8.840548e+001
3.323852e+003,8.842638e+001
3.324334e+003,8.844512e+001
3.324817e+003,8.846203e+001
3.325299e+003,8.847772e+001
3.325781e+003,8.849299e+001
3.326263e+003,8.850870e+001
3.326745e+003,8.852575e+001
3.327227e+003,8.854477e+001
3.327709e+003,8.856592e+001
3.328192e+003,8.858875e+001
3.328674e+003,8.861236e+001
3.329156e+003,8.863545e+001
3.329638e+003,8.865686e+001
3.330120e+003,8.867581e+001
3.330602e+003,8.869234e+001
3.331084e+003,8.870704e+001
3.331567e+003,8.872118e+001
3.332049e+003,8.873608e+001
3.332531e+003,8.875277e+001
3.333013e+003,8.877170e+001
3.333495e+003,8.879247e+001
3.333977e+003,8.881407e+001
3.334459e+003,8.883518e+001
3.334941e+003,8.885453e+001
3.335424e+003,8.887135e+001
3.335906e+003,8.888538e+001
3.336388e+003,8.889706e+001
3.336870e+003,8.890723e+001
3.337352e+003,8.891668e+001
3.337834e+003,8.892597e+001
3.338316e+003,8.893517e+001
3.338799e+003,8.894387e+001
3.339281e+003,8.895129e+001
3.339763e+003,8.895678e+001
3.340245e+003,8.895992e+001
3.340727e+003,8.896091e+001
3.341209e+003,8.896054e+001
3.341691e+003,8.896013e+001
3.342174e+003,8.896106e+001
3.342656e+003,8.896455e+001
3.343138e+003,8.897130e+001
3.343620e+003,8.898125e+001
3.344102e+003,8.899371e+001
3.344584e+003,8.900748e+001
3.345066e+003,8.902108e+001
3.345549e+003,8.903320e+001
3.346031e+003,8.904285e+001
3.346513e+003,8.904974e+001
3.346995e+003,8.905418e+001
3.347477e+003,8.905701e+001
3.347959e+003,8.905952e+001
3.348441e+003,8.906289e+001
3.348924e+003,8.906799e+001
3.349406e+003,8.907507e+001
3.349888e+003,8.908372e+001
3.350370e+003,8.909308e+001
3.350852e+003,8.910223e+001
3.351334e+003,8.911063e+001
3.351816e+003,8.911851e+001
3.352298e+003,8.912691e+001
3.352781e+003,8.913734e+001
3.353263e+003,8.915137e+001
3.353745e+003,8.916988e+001
3.354227e+003,8.919283e+001
3.354709e+003,8.921905e+001
3.355191e+003,8.924677e+001
3.355673e+003,8.927422e+001
3.356156e+003,8.930009e+001
3.356638e+003,8.932396e+001
3.357120e+003,8.934624e+001
3.357602e+003,8.936771e+001
3.358084e+003,8.938904e+001
3.358566e+003,8.941032e+001
3.359048e+003,8.943112e+001
3.359531e+003,8.945068e+001
3.360013e+003,8.946845e+001
3.360495e+003,8.948443e+001
3.360977e+003,8.949930e+001
3.361459e+003,8.951431e+001
3.361941e+003,8.953063e+001
3.362423e+003,8.954910e+001
3.362906e+003,8.956963e+001
3.363388e+003,8.959153e+001
3.363870e+003,8.961377e+001
3.364352e+003,8.963543e+001
3.364834e+003,8.965603e+001
3.365316e+003,8.967575e+001
3.365798e+003,8.969520e+001
3.366281e+003,8.971495e+001
3.366763e+003,8.973531e+001
3.367245e+003,8.975594e+001
3.367727e+003,8.977602e+001
3.368209e+003,8.979437e+001
3.368691e+003,8.980989e+001
3.369173e+003,8.982182e+001
3.369655e+003,8.983000e+001
3.370137e+003,8.983485e+001
3.370620e+003,8.983747e+001
3.371102e+003,8.983937e+001
3.371584e+003,8.984228e+001
3.372066e+003,8.984781e+001
3.372548e+003,8.985705e+001
3.373030e+003,8.987028e+001
3.373512e+003,8.988679e+001
3.373995e+003,8.990499e+001
3.374477e+003,8.992282e+001
3.374959e+003,8.993829e+001
3.375441e+003,8.995014e+001
3.375923e+003,8.995818e+001
3.376405e+003,8.996317e+001
3.376887e+003,8.996660e+001
3.377370e+003,8.996984e+001
3.377852e+003,8.997363e+001
3.378334e+003,8.997771e+001
3.378816e+003,8.998095e+001
3.379298e+003,8.998193e+001
3.379780e+003,8.997939e+001
3.380262e+003,8.997286e+001
3.380745e+003,8.996278e+001
3.381227e+003,8.995020e+001
3.381709e+003,8.993649e+001
3.382191e+003,8.992277e+001
3.382673e+003,8.990958e+001
3.383155e+003,8.989709e+001
3.383637e+003,8.988515e+001
3.384120e+003,8.987373e+001
3.384602e+003,8.986298e+001
3.385084e+003,8.985320e+001
3.385566e+003,8.984462e+001
3.386048e+003,8.983725e+001
3.386530e+003,8.983067e+001
3.387012e+003,8.982434e+001
3.387494e+003,8.981776e+001
3.387977e+003,8.981086e+001
3.388459e+003,8.980405e+001
3.388941e+003,8.979818e+001
3.389423e+003,8.979413e+001
3.389905e+003,8.979244e+001
3.390387e+003,8.979301e+001
3.390869e+003,8.979517e+001
3.391352e+003,8.979768e+001
3.391834e+003,8.979939e+001
3.392316e+003,8.979951e+001
3.392798e+003,8.979787e+001
3.393280e+003,8.979508e+001
3.393762e+003,8.979227e+001
3.394244e+003,8.979078e+001
3.394727e+003,8.979187e+001
3.395209e+003,8.979641e+001
3.395691e+003,8.980479e+001
3.396173e+003,8.981670e+001
3.396655e+003,8.983137e+001
3.397137e+003,8.984754e+001
3.397619e+003,8.986368e+001
3.398102e+003,8.987829e+001
3.398583e+003,8.989017e+001
3.399066e+003,8.989848e+001
3.399548e+003,8.990311e+001
3.400030e+003,8.990446e+001
3.400512e+003,8.990341e+001
3.400994e+003,8.990100e+001
3.401477e+003,8.989824e+001
3.401958e+003,8.989581e+001
3.402441e+003,8.989397e+001
3.402923e+003,8.989254e+001
3.403405e+003,8.989107e+001
3.403887e+003,8.988896e+001
3.404369e+003,8.988600e+001
3.404851e+003,8.988232e+001
3.405333e+003,8.987880e+001
3.405816e+003,8.987698e+001
3.406298e+003,8.987891e+001
3.406780e+003,8.988668e+001
3.407262e+003,8.990196e+001
3.407744e+003,8.992562e+001
3.408226e+003,8.995736e+001
3.408708e+003,8.999589e+001
3.409191e+003,9.003931e+001
3.409673e+003,9.008577e+001
3.410155e+003,9.013404e+001
3.410637e+003,9.018393e+001
3.411119e+003,9.023609e+001
3.411601e+003,9.029191e+001
3.412083e+003,9.035263e+001
3.412566e+003,9.041904e+001
3.413048e+003,9.049107e+001
3.413530e+003,9.056779e+001
3.414012e+003,9.064796e+001
3.414494e+003,9.073029e+001
3.414976e+003,9.081384e+001
3.415458e+003,9.089822e+001
3.415940e+003,9.098334e+001
3.416423e+003,9.106918e+001
3.416905e+003,9.115545e+001
3.417387e+003,9.124143e+001
3.417869e+003,9.132594e+001
3.418351e+003,9.140760e+001
3.418833e+003,9.148503e+001
3.419315e+003,9.155725e+001
3.419798e+003,9.162397e+001
3.420280e+003,9.168559e+001
3.420762e+003,9.174329e+001
3.421244e+003,9.179868e+001
3.421726e+003,9.185349e+001
3.422208e+003,9.190901e+001
3.422690e+003,9.196592e+001
3.423173e+003,9.202396e+001
3.423655e+003,9.208204e+001
3.424137e+003,9.213862e+001
3.424619e+003,9.219208e+001
3.425101e+003,9.224136e+001
3.425583e+003,9.228617e+001
3.426065e+003,9.232708e+001
3.426548e+003,9.236517e+001
3.427030e+003,9.240152e+001
3.427512e+003,9.243685e+001
3.427994e+003,9.247111e+001
3.428476e+003,9.250365e+001
3.428958e+003,9.253362e+001
3.429440e+003,9.256044e+001
3.429923e+003,9.258416e+001
3.430405e+003,9.260567e+001
3.430887e+003,9.262642e+001
3.431369e+003,9.264787e+001
3.431851e+003,9.267109e+001
3.432333e+003,9.269630e+001
3.432815e+003,9.272288e+001
3.433297e+003,9.274969e+001
3.433780e+003,9.277553e+001
3.434262e+003,9.279943e+001
3.434744e+003,9.282116e+001
3.435226e+003,9.284108e+001
3.435708e+003,9.286002e+001
3.436190e+003,9.287897e+001
3.436672e+003,9.289887e+001
3.437155e+003,9.292045e+001
3.437637e+003,9.294406e+001
3.438119e+003,9.296972e+001
3.438601e+003,9.299708e+001
3.439083e+003,9.302546e+001
3.439565e+003,9.305389e+001
3.440047e+003,9.308140e+001
3.440530e+003,9.310718e+001
3.441012e+003,9.313094e+001
3.441494e+003,9.315308e+001
3.441976e+003,9.317465e+001
3.442458e+003,9.319708e+001
3.442940e+003,9.322179e+001
3.443422e+003,9.324965e+001
3.443905e+003,9.328069e+001
3.444387e+003,9.331403e+001
3.444869e+003,9.334818e+001
3.445351e+003,9.338127e+001
3.445833e+003,9.341164e+001
3.446315e+003,9.343813e+001
3.446797e+003,9.346021e+001
3.447280e+003,9.347792e+001
3.447762e+003,9.349191e+001
3.448244e+003,9.350301e+001
3.448726e+003,9.351231e+001
3.449208e+003,9.352103e+001
3.449690e+003,9.353047e+001
3.450172e+003,9.354192e+001
3.450654e+003,9.355656e+001
3.451136e+003,9.357511e+001
3.451619e+003,9.359773e+001
3.452101e+003,9.362391e+001
3.452583e+003,9.365266e+001
3.453065e+003,9.368270e+001
3.453547e+003,9.371289e+001
3.454029e+003,9.374245e+001
3.454511e+003,9.377120e+001
3.454994e+003,9.379929e+001
3.455476e+003,9.382718e+001
3.455958e+003,9.385513e+001
3.456440e+003,9.388326e+001
3.456922e+003,9.391115e+001
3.457404e+003,9.393805e+001
3.457886e+003,9.396304e+001
3.458369e+003,9.398524e+001
3.458851e+003,9.400405e+001
3.459333e+003,9.401936e+001
3.459815e+003,9.403161e+001
3.460297e+003,9.404182e+001
3.460779e+003,9.405133e+001
3.461261e+003,9.406168e+001
3.461744e+003,9.407426e+001
3.462226e+003,9.409011e+001
3.462708e+003,9.410973e+001
3.463190e+003,9.413300e+001
3.463672e+003,9.415928e+001
3.464154e+003,9.418761e+001
3.464636e+003,9.421693e+001
3.465119e+003,9.424624e+001
3.465601e+003,9.427473e+001
3.466083e+003,9.430192e+001
3.466565e+003,9.432761e+001
3.467047e+003,9.435185e+001
3.467529e+003,9.437487e+001
3.468011e+003,9.439707e+001
3.468493e+003,9.441889e+001
3.468976e+003,9.444065e+001
3.469458e+003,9.446243e+001
3.469940e+003,9.448406e+001
3.470422e+003,9.450505e+001
3.470904e+003,9.452475e+001
3.471386e+003,9.454240e+001
3.471868e+003,9.455766e+001
3.472351e+003,9.457050e+001
3.472833e+003,9.458159e+001
3.473315e+003,9.459191e+001
3.473797e+003,9.460274e+001
3.474279e+003,9.461520e+001
3.474761e+003,9.462996e+001
3.475243e+003,9.464713e+001
3.475726e+003,9.466614e+001
3.476208e+003,9.468611e+001
3.476690e+003,9.470607e+001
3.477172e+003,9.472523e+001
3.477654e+003,9.474333e+001
3.478136e+003,9.476056e+001
3.478618e+003,9.477757e+001
3.479101e+003,9.479517e+001
3.479583e+003,9.481419e+001
3.480065e+003,9.483498e+001
3.480547e+003,9.485748e+001
3.481029e+003,9.488094e+001
3.481511e+003,9.490417e+001
3.481993e+003,9.492572e+001
3.482476e+003,9.494426e+001
3.482958e+003,9.495889e+001
3.483440e+003,9.496963e+001
3.483922e+003,9.497726e+001
3.484404e+003,9.498347e+001
3.484886e+003,9.499026e+001
3.485368e+003,9.499979e+001
3.485850e+003,9.501355e+001
3.486333e+003,9.503219e+001
3.486815e+003,9.505521e+001
3.487297e+003,9.508110e+001
3.487779e+003,9.510767e+001
3.488261e+003,9.513260e+001
3.488743e+003,9.515399e+001
3.489225e+003,9.517085e+001
3.489708e+003,9.518320e+001
3.490190e+003,9.519205e+001
3.490672e+003,9.519913e+001
3.491154e+003,9.520635e+001
3.491636e+003,9.521538e+001
3.492118e+003,9.522726e+001
3.492600e+003,9.524220e+001
3.493083e+003,9.525955e+001
3.493565e+003,9.527802e+001
3.494047e+003,9.529615e+001
3.494529e+003,9.531263e+001
3.495011e+003,9.532680e+001
3.495493e+003,9.533870e+001
3.495975e+003,9.534923e+001
3.496458e+003,9.535973e+001
3.496939e+003,9.537159e+001
3.497422e+003,9.538576e+001
3.497904e+003,9.540255e+001
3.498386e+003,9.542148e+001
3.498868e+003,9.544151e+001
3.499350e+003,9.546140e+001
3.499833e+003,9.548000e+001
3.500314e+003,9.549670e+001
3.500797e+003,9.551134e+001
3.501279e+003,9.552422e+001
3.501761e+003,9.553580e+001
3.502243e+003,9.554642e+001
3.502725e+003,9.555635e+001
3.503207e+003,9.556565e+001
3.503689e+003,9.557453e+001
3.504172e+003,9.558352e+001
3.504654e+003,9.559350e+001
3.505136e+003,9.560559e+001
3.505618e+003,9.562073e+001
3.506100e+003,9.563938e+001
3.506582e+003,9.566114e+001
3.507064e+003,9.568461e+001
3.507547e+003,9.570779e+001
3.508029e+003,9.572849e+001
3.508511e+003,9.574497e+001
3.508993e+003,9.575645e+001
3.509475e+003,9.576337e+001
3.509957e+003,9.576714e+001
3.510439e+003,9.576965e+001
3.510922e+003,9.577248e+001
3.511404e+003,9.577666e+001
3.511886e+003,9.578238e+001
3.512368e+003,9.578922e+001
3.512850e+003,9.579657e+001
3.513332e+003,9.580406e+001
3.513814e+003,9.581182e+001
3.514296e+003,9.582047e+001
3.514779e+003,9.583074e+001
3.515261e+003,9.584321e+001
3.515743e+003,9.585801e+001
3.516225e+003,9.587457e+001
3.516707e+003,9.589188e+001
3.517189e+003,9.590886e+001
3.517671e+003,9.592450e+001
3.518154e+003,9.593841e+001
3.518636e+003,9.595074e+001
3.519118e+003,9.596210e+001
3.519600e+003,9.597330e+001
3.520082e+003,9.598518e+001
3.520564e+003,9.599836e+001
3.521046e+003,9.601323e+001
3.521529e+003,9.602999e+001
3.522011e+003,9.604865e+001
3.522493e+003,9.606906e+001
3.522975e+003,9.609087e+001
3.523457e+003,9.611341e+001
3.523939e+003,9.613579e+001
3.524421e+003,9.615687e+001
3.524904e+003,9.617555e+001
3.525386e+003,9.619102e+001
3.525868e+003,9.620297e+001
3.526350e+003,9.621179e+001
3.526832e+003,9.621841e+001
3.527314e+003,9.622422e+001
3.527796e+003,9.623055e+001
3.528279e+003,9.623845e+001
3.528761e+003,9.624826e+001
3.529243e+003,9.625958e+001
3.529725e+003,9.627155e+001
3.530207e+003,9.628316e+001
3.530689e+003,9.629370e+001
3.531171e+003,9.630307e+001
3.531653e+003,9.631184e+001
3.532135e+003,9.632098e+001
3.532618e+003,9.633158e+001
3.533100e+003,9.634423e+001
3.533582e+003,9.635886e+001
3.534064e+003,9.637464e+001
3.534546e+003,9.639027e+001
3.535028e+003,9.640446e+001
3.535510e+003,9.641644e+001
3.535993e+003,9.642631e+001
3.536475e+003,9.643502e+001
3.536957e+003,9.644397e+001
3.537439e+003,9.645445e+001
3.537921e+003,9.646709e+001
3.538403e+003,9.648161e+001
3.538885e+003,9.649686e+001
