3.301674e+003,9.014995e+001
3.302156e+003,9.016355e+001
3.302638e+003,9.017769e+001
3.303121e+003,9.019169e+001
3.303603e+003,9.020465e+001
3.304085e+003,9.021588e+001
3.304567e+003,9.022510e+001
3.305049e+003,9.023257e+001
3.305531e+003,9.023935e+001
3.306013e+003,9.024681e+001
3.306495e+003,9.025628e+001
3.306978e+003,9.026855e+001
3.307460e+003,9.028356e+001
3.307942e+003,9.030043e+001
3.308424e+003,9.031787e+001
3.308906e+003,9.033469e+001
3.309388e+003,9.035033e+001
3.309870e+003,9.036526e+001
3.310353e+003,9.038057e+001
3.310835e+003,9.039768e+001
3.311317e+003,9.041755e+001
3.311799e+003,9.044038e+001
3.312281e+003,9.046536e+001
3.312763e+003,9.049101e+001
3.313245e+003,9.051577e+001
3.313728e+003,9.053856e+001
3.314210e+003,9.055910e+001
3.314692e+003,9.057789e+001
3.315174e+003,9.059583e+001
3.315656e+003,9.061382e+001
3.316138e+003,9.063237e+001
3.316620e+003,9.065161e+001
3.317103e+003,9.067144e+001
3.317584e+003,9.069196e+001
3.318067e+003,9.071349e+001
3.318549e+003,9.073672e+001
3.319031e+003,9.076220e+001
3.319513e+003,9.079015e+001
3.319995e+003,9.082018e+001
3.320478e+003,9.085117e+001
3.320959e+003,9.088180e+001
3.321442e+003,9.091103e+001
3.321924e+003,9.093842e+001
3.322406e+003,9.096451e+001
3.322888e+003,9.099032e+001
3.323370e+003,9.101685e+001
3.323852e+003,9.104471e+001
3.324334e+003,9.107349e+001
3.324817e+003,9.110201e+001
3.325299e+003,9.112869e+001
3.325781e+003,9.115204e+001
3.326263e+003,9.117161e+001
3.326745e+003,9.118783e+001
3.327227e+003,9.120233e+001
3.327709e+003,9.121717e+001
3.328192e+003,9.123438e+001
3.328674e+003,9.125545e+001
3.329156e+003,9.128074e+001
3.329638e+003,9.130966e+001
3.330120e+003,9.134067e+001
3.330602e+003,9.137170e+001
3.331084e+003,9.140063e+001
3.331567e+003,9.142569e+001
3.332049e+003,9.144576e+001
3.332531e+003,9.146065e+001
3.333013e+003,9.147111e+001
3.333495e+003,9.147877e+001
3.333977e+003,9.148563e+001
3.334459e+003,9.149373e+001
3.334941e+003,9.150465e+001
3.335424e+003,9.151910e+001
3.335906e+003,9.153680e+001
3.336388e+003,9.155660e+001
3.336870e+003,9.157680e+001
3.337352e+003,9.159561e+001
3.337834e+003,9.161150e+001
3.338316e+003,9.162367e+001
3.338799e+003,9.163213e+001
3.339281e+003,9.163776e+001
3.339763e+003,9.164212e+001
3.340245e+003,9.164715e+001
3.340727e+003,9.165476e+001
3.341209e+003,9.166641e+001
3.341691e+003,9.168275e+001
3.342174e+003,9.170335e+001
3.342656e+003,9.172684e+001
3.343138e+003,9.175118e+001
3.343620e+003,9.177431e+001
3.344102e+003,9.179458e+001
3.344584e+003,9.181128e+001
3.345066e+003,9.182475e+001
3.345549e+003,9.183614e+001
3.346031e+003,9.184704e+001
3.346513e+003,9.185876e+001
3.346995e+003,9.187228e+001
3.347477e+003,9.188780e+001
3.347959e+003,9.190508e+001
3.348441e+003,9.192356e+001
3.348924e+003,9.194267e+001
3.349406e+003,9.196178e+001
3.349888e+003,9.198044e+001
3.350370e+003,9.199810e+001
3.350852e+003,9.201424e+001
3.351334e+003,9.202849e+001
3.351816e+003,9.204089e+001
3.352298e+003,9.205187e+001
3.352781e+003,9.206246e+001
3.353263e+003,9.207381e+001
3.353745e+003,9.208691e+001
3.354227e+003,9.210212e+001
3.354709e+003,9.211906e+001
3.355191e+003,9.213685e+001
3.355673e+003,9.215440e+001
3.356156e+003,9.217113e+001
3.356638e+003,9.218710e+001
3.357120e+003,9.220317e+001
3.357602e+003,9.222043e+001
3.358084e+003,9.223991e+001
3.358566e+003,9.226192e+001
3.359048e+003,9.228611e+001
3.359531e+003,9.231147e+001
3.360013e+003,9.233696e+001
3.360495e+003,9.236177e+001
3.360977e+003,9.238560e+001
3.361459e+003,9.240849e+001
3.361941e+003,9.243062e+001
3.362423e+003,9.245179e+001
3.362906e+003,9.247149e+001
3.363388e+003,9.248902e+001
3.363870e+003,9.250393e+001
3.364352e+003,9.251626e+001
3.364834e+003,9.252685e+001
3.365316e+003,9.253698e+001
3.365798e+003,9.254804e+001
3.366281e+003,9.256093e+001
3.366763e+003,9.257570e+001
3.367245e+003,9.259174e+001
3.367727e+003,9.260794e+001
3.368209e+003,9.262335e+001
3.368691e+003,9.263744e+001
3.369173e+003,9.265026e+001
3.369655e+003,9.266216e+001
3.370137e+003,9.267347e+001
3.370620e+003,9.268414e+001
3.371102e+003,9.269359e+001
3.371584e+003,9.270109e+001
3.372066e+003,9.270590e+001
3.372548e+003,9.270777e+001
3.373030e+003,9.270708e+001
3.373512e+003,9.270473e+001
3.373995e+003,9.270187e+001
3.374477e+003,9.269952e+001
3.374959e+003,9.269823e+001
3.375441e+003,9.269807e+001
3.375923e+003,9.269858e+001
3.376405e+003,9.269885e+001
3.376887e+003,9.269790e+001
3.377370e+003,9.269463e+001
3.377852e+003,9.268814e+001
3.378334e+003,9.267791e+001
3.378816e+003,9.266387e+001
3.379298e+003,9.264677e+001
3.379780e+003,9.262798e+001
3.380262e+003,9.260925e+001
3.380745e+003,9.259232e+001
3.381227e+003,9.257829e+001
3.381709e+003,9.256732e+001
3.382191e+003,9.255855e+001
3.382673e+003,9.255034e+001
3.383155e+003,9.254102e+001
3.383637e+003,9.252939e+001
3.384120e+003,9.251515e+001
3.384602e+003,9.249897e+001
3.385084e+003,9.248221e+001
3.385566e+003,9.246629e+001
3.386048e+003,9.245225e+001
3.386530e+003,9.244049e+001
3.387012e+003,9.243084e+001
3.387494e+003,9.242288e+001
3.387977e+003,9.241621e+001
3.388459e+003,9.241054e+001
3.388941e+003,9.240595e+001
3.389423e+003,9.240244e+001
3.389905e+003,9.239992e+001
3.390387e+003,9.239806e+001
3.390869e+003,9.239651e+001
3.391352e+003,9.239490e+001
3.391834e+003,9.239323e+001
3.392316e+003,9.239175e+001
3.392798e+003,9.239087e+001
3.393280e+003,9.239103e+001
3.393762e+003,9.239253e+001
3.394244e+003,9.239542e+001
3.394727e+003,9.239957e+001
3.395209e+003,9.240489e+001
3.395691e+003,9.241138e+001
3.396173e+003,9.241904e+001
3.396655e+003,9.242793e+001
3.397137e+003,9.243779e+001
3.397619e+003,9.244811e+001
3.398102e+003,9.245805e+001
3.398583e+003,9.246675e+001
3.399066e+003,9.247358e+001
3.399548e+003,9.247823e+001
3.400030e+003,9.248083e+001
3.400512e+003,9.248184e+001
3.400994e+003,9.248183e+001
3.401477e+003,9.248145e+001
3.401958e+003,9.248141e+001
3.402441e+003,9.248255e+001
3.402923e+003,9.248596e+001
3.403405e+003,9.249287e+001
3.403887e+003,9.250448e+001
3.404369e+003,9.252158e+001
3.404851e+003,9.254430e+001
3.405333e+003,9.257198e+001
3.405816e+003,9.260326e+001
3.406298e+003,9.263673e+001
3.406780e+003,9.267141e+001
3.407262e+003,9.270708e+001
3.407744e+003,9.274456e+001
3.408226e+003,9.278535e+001
3.408708e+003,9.283110e+001
3.409191e+003,9.288316e+001
3.409673e+003,9.294210e+001
3.410155e+003,9.300770e+001
3.410637e+003,9.307903e+001
3.411119e+003,9.315495e+001
3.411601e+003,9.323435e+001
3.412083e+003,9.331647e+001
3.412566e+003,9.340086e+001
3.413048e+003,9.348751e+001
3.413530e+003,9.357641e+001
3.414012e+003,9.366761e+001
3.414494e+003,9.376088e+001
3.414976e+003,9.385571e+001
3.415458e+003,9.395120e+001
3.415940e+003,9.404614e+001
3.416423e+003,9.413910e+001
3.416905e+003,9.422874e+001
3.417387e+003,9.431406e+001
3.417869e+003,9.439459e+001
3.418351e+003,9.447058e+001
3.418833e+003,9.454293e+001
3.419315e+003,9.461288e+001
3.419798e+003,9.468168e+001
3.420280e+003,9.475027e+001
3.420762e+003,9.481903e+001
3.421244e+003,9.488775e+001
3.421726e+003,9.495574e+001
3.422208e+003,9.502224e+001
3.422690e+003,9.508641e+001
3.423173e+003,9.514772e+001
3.423655e+003,9.520573e+001
3.424137e+003,9.526028e+001
3.424619e+003,9.531130e+001
3.425101e+003,9.535881e+001
3.425583e+003,9.540306e+001
3.426065e+003,9.544450e+001
3.426548e+003,9.548382e+001
3.427030e+003,9.552176e+001
3.427512e+003,9.555885e+001
3.427994e+003,9.559536e+001
3.428476e+003,9.563102e+001
3.428958e+003,9.566514e+001
3.429440e+003,9.569692e+001
3.429923e+003,9.572578e+001
3.430405e+003,9.575175e+001
3.430887e+003,9.577544e+001
3.431369e+003,9.579820e+001
3.431851e+003,9.582147e+001
3.432333e+003,9.584652e+001
3.432815e+003,9.587401e+001
3.433297e+003,9.590372e+001
3.433780e+003,9.593474e+001
3.434262e+003,9.596573e+001
3.434744e+003,9.599538e+001
3.435226e+003,9.602280e+001
3.435708e+003,9.604780e+001
3.436190e+003,9.607080e+001
3.436672e+003,9.609264e+001
3.437155e+003,9.611428e+001
3.437637e+003,9.613637e+001
3.438119e+003,9.615913e+001
3.438601e+003,9.618230e+001
3.439083e+003,9.620547e+001
3.439565e+003,9.622823e+001
3.440047e+003,9.625042e+001
3.440530e+003,9.627224e+001
3.441012e+003,9.629420e+001
3.441494e+003,9.631674e+001
3.441976e+003,9.634011e+001
3.442458e+003,9.636412e+001
3.442940e+003,9.638823e+001
3.443422e+003,9.641171e+001
3.443905e+003,9.643402e+001
3.444387e+003,9.645506e+001
3.444869e+003,9.647530e+001
3.445351e+003,9.649561e+001
3.445833e+003,9.651712e+001
3.446315e+003,9.654074e+001
3.446797e+003,9.656693e+001
3.447280e+003,9.659575e+001
3.447762e+003,9.662679e+001
3.448244e+003,9.665933e+001
3.448726e+003,9.669268e+001
3.449208e+003,9.672601e+001
3.449690e+003,9.675849e+001
3.450172e+003,9.678908e+001
3.450654e+003,9.681668e+001
3.451136e+003,9.684044e+001
3.451619e+003,9.685989e+001
3.452101e+003,9.687542e+001
3.452583e+003,9.688834e+001
3.453065e+003,9.690057e+001
3.453547e+003,9.691431e+001
3.454029e+003,9.693124e+001
3.454511e+003,9.695221e+001
3.454994e+003,9.697697e+001
3.455476e+003,9.700443e+001
3.455958e+003,9.703302e+001
3.456440e+003,9.706147e+001
3.456922e+003,9.708893e+001
3.457404e+003,9.711531e+001
3.457886e+003,9.714101e+001
3.458369e+003,9.716669e+001
3.458851e+003,9.719297e+001
3.459333e+003,9.722013e+001
3.459815e+003,9.724828e+001
3.460297e+003,9.727720e+001
3.460779e+003,9.730659e+001
3.461261e+003,9.733580e+001
3.461744e+003,9.736401e+001
3.462226e+003,9.739024e+001
3.462708e+003,9.741335e+001
3.463190e+003,9.743269e+001
3.463672e+003,9.744810e+001
3.464154e+003,9.746027e+001
3.464636e+003,9.747060e+001
3.465119e+003,9.748083e+001
3.465601e+003,9.749243e+001
3.466083e+003,9.750635e+001
3.466565e+003,9.752264e+001
3.467047e+003,9.754073e+001
3.467529e+003,9.755978e+001
3.468011e+003,9.757922e+001
3.468493e+003,9.759889e+001
3.468976e+003,9.761906e+001
3.469458e+003,9.763999e+001
3.469940e+003,9.766163e+001
3.470422e+003,9.768334e+001
3.470904e+003,9.770398e+001
3.471386e+003,9.772235e+001
3.471868e+003,9.773779e+001
3.472351e+003,9.775032e+001
3.472833e+003,9.776083e+001
3.473315e+003,9.777069e+001
3.473797e+003,9.778109e+001
3.474279e+003,9.779286e+001
3.474761e+003,9.780608e+001
3.475243e+003,9.782032e+001
3.475726e+003,9.783514e+001
3.476208e+003,9.785020e+001
3.476690e+003,9.786551e+001
3.477172e+003,9.788106e+001
3.477654e+003,9.789671e+001
3.478136e+003,9.791178e+001
3.478618e+003,9.792536e+001
3.479101e+003,9.793658e+001
3.479583e+003,9.794524e+001
3.480065e+003,9.795207e+001
3.480547e+003,9.795886e+001
3.481029e+003,9.796780e+001
3.481511e+003,9.798059e+001
3.481993e+003,9.799784e+001
3.482476e+003,9.801855e+001
3.482958e+003,9.804047e+001
3.483440e+003,9.806087e+001
3.483922e+003,9.807751e+001
3.484404e+003,9.808945e+001
3.484886e+003,9.809717e+001
3.485368e+003,9.810248e+001
3.485850e+003,9.810758e+001
3.486333e+003,9.811458e+001
3.486815e+003,9.812489e+001
3.487297e+003,9.813904e+001
3.487779e+003,9.815681e+001
3.488261e+003,9.817747e+001
3.488743e+003,9.820001e+001
3.489225e+003,9.822305e+001
3.489708e+003,9.824504e+001
3.490190e+003,9.826430e+001
3.490672e+003,9.827917e+001
3.491154e+003,9.828864e+001
3.491636e+003,9.829261e+001
3.492118e+003,9.829213e+001
3.492600e+003,9.828922e+001
3.493083e+003,9.828633e+001
3.493565e+003,9.828566e+001
3.494047e+003,9.828850e+001
3.494529e+003,9.829502e+001
3.495011e+003,9.830449e+001
3.495493e+003,9.831561e+001
3.495975e+003,9.832725e+001
3.496458e+003,9.833866e+001
3.496939e+003,9.834965e+001
3.497422e+003,9.836029e+001
3.497904e+003,9.837057e+001
3.498386e+003,9.838007e+001
3.498868e+003,9.838797e+001
3.499350e+003,9.839339e+001
3.499833e+003,9.839568e+001
3.500314e+003,9.839490e+001
3.500797e+003,9.839203e+001
3.501279e+003,9.838888e+001
3.501761e+003,9.838773e+001
3.502243e+003,9.839088e+001
3.502725e+003,9.840010e+001
3.503207e+003,9.841615e+001
3.503689e+003,9.843867e+001
3.504172e+003,9.846600e+001
3.504654e+003,9.849557e+001
3.505136e+003,9.852446e+001
3.505618e+003,9.854973e+001
3.506100e+003,9.856931e+001
3.506582e+003,9.858231e+001
3.507064e+003,9.858917e+001
3.507547e+003,9.859155e+001
3.508029e+003,9.859179e+001
3.508511e+003,9.859231e+001
3.508993e+003,9.859487e+001
3.509475e+003,9.860018e+001
3.509957e+003,9.860802e+001
3.510439e+003,9.861750e+001
3.510922e+003,9.862765e+001
3.511404e+003,9.863795e+001
3.511886e+003,9.864840e+001
3.512368e+003,9.865949e+001
3.512850e+003,9.867171e+001
3.513332e+003,9.868522e+001
3.513814e+003,9.869950e+001
3.514296e+003,9.871368e+001
3.514779e+003,9.872665e+001
3.515261e+003,9.873754e+001
3.515743e+003,9.874594e+001
3.516225e+003,9.875217e+001
3.516707e+003,9.875686e+001
3.517189e+003,9.876090e+001
3.517671e+003,9.876499e+001
3.518154e+003,9.876949e+001
3.518636e+003,9.877436e+001
3.519118e+003,9.877934e+001
3.519600e+003,9.878400e+001
3.520082e+003,9.878807e+001
3.520564e+003,9.879141e+001
3.521046e+003,9.879416e+001
3.521529e+003,9.879665e+001
3.522011e+003,9.879939e+001
3.522493e+003,9.880299e+001
3.522975e+003,9.880795e+001
3.523457e+003,9.881439e+001
3.523939e+003,9.882217e+001
3.524421e+003,9.883078e+001
3.524904e+003,9.883941e+001
3.525386e+003,9.884746e+001
3.525868e+003,9.885464e+001
3.526350e+003,9.886119e+001
3.526832e+003,9.886791e+001
3.527314e+003,9.887576e+001
3.527796e+003,9.888571e+001
3.528279e+003,9.889832e+001
3.528761e+003,9.891352e+001
3.529243e+003,9.893067e+001
3.529725e+003,9.894888e+001
3.530207e+003,9.896703e+001
3.530689e+003,9.898423e+001
3.531171e+003,9.899960e+001
3.531653e+003,9.901250e+001
3.532135e+003,9.902243e+001
3.532618e+003,9.902917e+001
3.533100e+003,9.903296e+001
3.533582e+003,9.903448e+001
3.534064e+003,9.903495e+001
3.534546e+003,9.903596e+001
3.535028e+003,9.903894e+001
3.535510e+003,9.904485e+001
3.535993e+003,9.905383e+001
3.536475e+003,9.906522e+001
3.536957e+003,9.907777e+001
3.537439e+003,9.909035e+001
3.537921e+003,9.910213e+001
3.538403e+003,9.911288e+001
3.538885e+003,9.912280e+001
