3.301674e+003,8.899164e+001
3.302156e+003,8.899702e+001
3.302638e+003,8.900475e+001
3.303121e+003,8.901452e+001
3.303603e+003,8.902557e+001
3.304085e+003,8.903686e+001
3.304567e+003,8.904731e+001
3.305049e+003,8.905605e+001
3.305531e+003,8.906264e+001
3.306013e+003,8.906730e+001
3.306495e+003,8.907078e+001
3.306978e+003,8.907420e+001
3.307460e+003,8.907866e+001
3.307942e+003,8.908513e+001
3.308424e+003,8.909403e+001
3.308906e+003,8.910528e+001
3.309388e+003,8.911826e+001
3.309870e+003,8.913213e+001
3.310353e+003,8.914606e+001
3.310835e+003,8.915942e+001
3.311317e+003,8.917210e+001
3.311799e+003,8.918443e+001
3.312281e+003,8.919703e+001
3.312763e+003,8.921078e+001
3.313245e+003,8.922625e+001
3.313728e+003,8.924369e+001
3.314210e+003,8.926279e+001
3.314692e+003,8.928278e+001
3.315174e+003,8.930273e+001
3.315656e+003,8.932185e+001
3.316138e+003,8.933981e+001
3.316620e+003,8.935699e+001
3.317103e+003,8.937431e+001
3.317584e+003,8.939301e+001
3.318067e+003,8.941412e+001
3.318549e+003,8.943810e+001
3.319031e+003,8.946456e+001
3.319513e+003,8.949239e+001
3.319995e+003,8.952026e+001
3.320478e+003,8.954693e+001
3.320959e+003,8.957183e+001
3.321442e+003,8.959518e+001
3.321924e+003,8.961776e+001
3.322406e+003,8.964055e+001
3.322888e+003,8.966414e+001
3.323370e+003,8.968851e+001
3.323852e+003,8.971302e+001
3.324334e+003,8.973676e+001
3.324817e+003,8.975894e+001
3.325299e+003,8.977953e+001
3.325781e+003,8.979910e+001
3.326263e+003,8.981873e+001
3.326745e+003,8.983964e+001
3.327227e+003,8.986251e+001
3.327709e+003,8.988729e+001
3.328192e+003,8.991322e+001
3.328674e+003,8.993903e+001
3.329156e+003,8.996349e+001
3.329638e+003,8.998578e+001
3.330120e+003,9.000562e+001
3.330602e+003,9.002338e+001
3.331084e+003,9.003957e+001
3.331567e+003,9.005484e+001
3.332049e+003,9.006980e+001
3.332531e+003,9.008484e+001
3.333013e+003,9.010033e+001
3.333495e+003,9.011652e+001
3.333977e+003,9.013365e+001
3.334459e+003,9.015166e+001
3.334941e+003,9.017020e+001
3.335424e+003,9.018851e+001
3.335906e+003,9.020567e+001
3.336388e+003,9.022086e+001
3.336870e+003,9.023360e+001
3.337352e+003,9.024399e+001
3.337834e+003,9.025269e+001
3.338316e+003,9.026057e+001
3.338799e+003,9.026860e+001
3.339281e+003,9.027728e+001
3.339763e+003,9.028674e+001
3.340245e+003,9.029664e+001
3.340727e+003,9.030650e+001
3.341209e+003,9.031580e+001
3.341691e+003,9.032421e+001
3.342174e+003,9.033158e+001
3.342656e+003,9.033789e+001
3.343138e+003,9.034322e+001
3.343620e+003,9.034769e+001
3.344102e+003,9.035155e+001
3.344584e+003,9.035519e+001
3.345066e+003,9.035915e+001
3.345549e+003,9.036390e+001
3.346031e+003,9.036976e+001
3.346513e+003,9.037672e+001
3.346995e+003,9.038438e+001
3.347477e+003,9.039223e+001
3.347959e+003,9.039986e+001
3.348441e+003,9.040723e+001
3.348924e+003,9.041480e+001
3.349406e+003,9.042332e+001
3.349888e+003,9.043354e+001
3.350370e+003,9.044586e+001
3.350852e+003,9.046011e+001
3.351334e+003,9.047562e+001
3.351816e+003,9.049167e+001
3.352298e+003,9.050776e+001
3.352781e+003,9.052393e+001
3.353263e+003,9.054079e+001
3.353745e+003,9.055918e+001
3.354227e+003,9.057979e+001
3.354709e+003,9.060264e+001
3.355191e+003,9.062716e+001
3.355673e+003,9.065224e+001
3.356156e+003,9.067676e+001
3.356638e+003,9.069991e+001
3.357120e+003,9.072154e+001
3.357602e+003,9.074197e+001
3.358084e+003,9.076176e+001
3.358566e+003,9.078136e+001
3.359048e+003,9.080091e+001
3.359531e+003,9.082029e+001
3.360013e+003,9.083932e+001
3.360495e+003,9.085812e+001
3.360977e+003,9.087707e+001
3.361459e+003,9.089682e+001
3.361941e+003,9.091788e+001
3.362423e+003,9.094030e+001
3.362906e+003,9.096354e+001
3.363388e+003,9.098658e+001
3.363870e+003,9.100829e+001
3.364352e+003,9.102788e+001
3.364834e+003,9.104523e+001
3.365316e+003,9.106094e+001
3.365798e+003,9.107600e+001
3.366281e+003,9.109140e+001
3.366763e+003,9.110777e+001
3.367245e+003,9.112512e+001
3.367727e+003,9.114303e+001
3.368209e+003,9.116081e+001
3.368691e+003,9.117786e+001
3.369173e+003,9.119381e+001
3.369655e+003,9.120856e+001
3.370137e+003,9.122206e+001
3.370620e+003,9.123432e+001
3.371102e+003,9.124523e+001
3.371584e+003,9.125467e+001
3.372066e+003,9.126257e+001
3.372548e+003,9.126899e+001
3.373030e+003,9.127419e+001
3.373512e+003,9.127827e+001
3.373995e+003,9.128128e+001
3.374477e+003,9.128311e+001
3.374959e+003,9.128340e+001
3.375441e+003,9.128210e+001
3.375923e+003,9.127941e+001
3.376405e+003,9.127601e+001
3.376887e+003,9.127274e+001
3.377370e+003,9.127057e+001
3.377852e+003,9.126981e+001
3.378334e+003,9.127013e+001
3.378816e+003,9.127044e+001
3.379298e+003,9.126924e+001
3.379780e+003,9.126505e+001
3.380262e+003,9.125698e+001
3.380745e+003,9.124487e+001
3.381227e+003,9.122939e+001
3.381709e+003,9.121170e+001
3.382191e+003,9.119316e+001
3.382673e+003,9.117489e+001
3.383155e+003,9.115778e+001
3.383637e+003,9.114236e+001
3.384120e+003,9.112901e+001
3.384602e+003,9.111789e+001
3.385084e+003,9.110891e+001
3.385566e+003,9.110168e+001
3.386048e+003,9.109555e+001
3.386530e+003,9.108949e+001
3.387012e+003,9.108251e+001
3.387494e+003,9.107391e+001
3.387977e+003,9.106362e+001
3.388459e+003,9.105223e+001
3.388941e+003,9.104099e+001
3.389423e+003,9.103123e+001
3.389905e+003,9.102419e+001
3.390387e+003,9.102046e+001
3.390869e+003,9.101997e+001
3.391352e+003,9.102196e+001
3.391834e+003,9.102537e+001
3.392316e+003,9.102924e+001
3.392798e+003,9.103286e+001
3.393280e+003,9.103611e+001
3.393762e+003,9.103934e+001
3.394244e+003,9.104311e+001
3.394727e+003,9.104803e+001
3.395209e+003,9.105439e+001
3.395691e+003,9.106213e+001
3.396173e+003,9.107071e+001
3.396655e+003,9.107927e+001
3.397137e+003,9.108685e+001
3.397619e+003,9.109259e+001
3.398102e+003,9.109599e+001
3.398583e+003,9.109695e+001
3.399066e+003,9.109586e+001
3.399548e+003,9.109341e+001
3.400030e+003,9.109029e+001
3.400512e+003,9.108724e+001
3.400994e+003,9.108470e+001
3.401477e+003,9.108297e+001
3.401958e+003,9.108220e+001
3.402441e+003,9.108244e+001
3.402923e+003,9.108368e+001
3.403405e+003,9.108595e+001
3.403887e+003,9.108916e+001
3.404369e+003,9.109328e+001
3.404851e+003,9.109834e+001
3.405333e+003,9.110470e+001
3.405816e+003,9.111309e+001
3.406298e+003,9.112484e+001
3.406780e+003,9.114147e+001
3.407262e+003,9.116457e+001
3.407744e+003,9.119518e+001
3.408226e+003,9.123348e+001
3.408708e+003,9.127878e+001
3.409191e+003,9.132968e+001
3.409673e+003,9.138452e+001
3.410155e+003,9.144212e+001
3.410637e+003,9.150201e+001
3.411119e+003,9.156463e+001
3.411601e+003,9.163101e+001
3.412083e+003,9.170230e+001
3.412566e+003,9.177926e+001
3.413048e+003,9.186185e+001
3.413530e+003,9.194931e+001
3.414012e+003,9.204031e+001
3.414494e+003,9.213317e+001
3.414976e+003,9.222639e+001
3.415458e+003,9.231872e+001
3.415940e+003,9.240923e+001
3.416423e+003,9.249738e+001
3.416905e+003,9.258289e+001
3.417387e+003,9.266567e+001
3.417869e+003,9.274586e+001
3.418351e+003,9.282363e+001
3.418833e+003,9.289925e+001
3.419315e+003,9.297285e+001
3.419798e+003,9.304454e+001
3.420280e+003,9.311420e+001
3.420762e+003,9.318187e+001
3.421244e+003,9.324744e+001
3.421726e+003,9.331116e+001
3.422208e+003,9.337320e+001
3.422690e+003,9.343373e+001
3.423173e+003,9.349278e+001
3.423655e+003,9.354996e+001
3.424137e+003,9.360470e+001
3.424619e+003,9.365630e+001
3.425101e+003,9.370420e+001
3.425583e+003,9.374825e+001
3.426065e+003,9.378875e+001
3.426548e+003,9.382620e+001
3.427030e+003,9.386118e+001
3.427512e+003,9.389413e+001
3.427994e+003,9.392504e+001
3.428476e+003,9.395380e+001
3.428958e+003,9.398035e+001
3.429440e+003,9.400503e+001
3.429923e+003,9.402850e+001
3.430405e+003,9.405186e+001
3.430887e+003,9.407616e+001
3.431369e+003,9.410199e+001
3.431851e+003,9.412931e+001
3.432333e+003,9.415737e+001
3.432815e+003,9.418501e+001
3.433297e+003,9.421122e+001
3.433780e+003,9.423543e+001
3.434262e+003,9.425775e+001
3.434744e+003,9.427898e+001
3.435226e+003,9.430021e+001
3.435708e+003,9.432243e+001
3.436190e+003,9.434625e+001
3.436672e+003,9.437173e+001
3.437155e+003,9.439848e+001
3.437637e+003,9.442582e+001
3.438119e+003,9.445298e+001
3.438601e+003,9.447924e+001
3.439083e+003,9.450403e+001
3.439565e+003,9.452690e+001
3.440047e+003,9.454774e+001
3.440530e+003,9.456670e+001
3.441012e+003,9.458444e+001
3.441494e+003,9.460196e+001
3.441976e+003,9.462041e+001
3.442458e+003,9.464074e+001
3.442940e+003,9.466348e+001
3.443422e+003,9.468842e+001
3.443905e+003,9.471467e+001
3.444387e+003,9.474115e+001
3.444869e+003,9.476687e+001
3.445351e+003,9.479137e+001
3.445833e+003,9.481494e+001
3.446315e+003,9.483828e+001
3.446797e+003,9.486239e+001
3.447280e+003,9.488791e+001
3.447762e+003,9.491508e+001
3.448244e+003,9.494346e+001
3.448726e+003,9.497247e+001
3.449208e+003,9.500145e+001
3.449690e+003,9.503005e+001
3.450172e+003,9.505815e+001
3.450654e+003,9.508586e+001
3.451136e+003,9.511321e+001
3.451619e+003,9.514012e+001
3.452101e+003,9.516639e+001
3.452583e+003,9.519189e+001
3.453065e+003,9.521666e+001
3.453547e+003,9.524113e+001
3.454029e+003,9.526587e+001
3.454511e+003,9.529145e+001
3.454994e+003,9.531799e+001
3.455476e+003,9.534525e+001
3.455958e+003,9.537236e+001
3.456440e+003,9.539845e+001
3.456922e+003,9.542276e+001
3.457404e+003,9.544508e+001
3.457886e+003,9.546566e+001
3.458369e+003,9.548519e+001
3.458851e+003,9.550433e+001
3.459333e+003,9.552349e+001
3.459815e+003,9.554276e+001
3.460297e+003,9.556200e+001
3.460779e+003,9.558107e+001
3.461261e+003,9.560008e+001
3.461744e+003,9.561943e+001
3.462226e+003,9.563965e+001
3.462708e+003,9.566105e+001
3.463190e+003,9.568347e+001
3.463672e+003,9.570609e+001
3.464154e+003,9.572772e+001
3.464636e+003,9.574716e+001
3.465119e+003,9.576376e+001
3.465601e+003,9.577760e+001
3.466083e+003,9.578977e+001
3.466565e+003,9.580190e+001
3.467047e+003,9.581573e+001
3.467529e+003,9.583264e+001
3.468011e+003,9.585325e+001
3.468493e+003,9.587737e+001
3.468976e+003,9.590413e+001
3.469458e+003,9.593224e+001
3.469940e+003,9.596033e+001
3.470422e+003,9.598711e+001
3.470904e+003,9.601166e+001
3.471386e+003,9.603320e+001
3.471868e+003,9.605149e+001
3.472351e+003,9.606661e+001
3.472833e+003,9.607922e+001
3.473315e+003,9.609028e+001
3.473797e+003,9.610101e+001
3.474279e+003,9.611250e+001
3.474761e+003,9.612543e+001
3.475243e+003,9.613994e+001
3.475726e+003,9.615553e+001
3.476208e+003,9.617135e+001
3.476690e+003,9.618671e+001
3.477172e+003,9.620124e+001
3.477654e+003,9.621525e+001
3.478136e+003,9.622948e+001
3.478618e+003,9.624497e+001
3.479101e+003,9.626248e+001
3.479583e+003,9.628227e+001
3.480065e+003,9.630391e+001
3.480547e+003,9.632657e+001
3.481029e+003,9.634917e+001
3.481511e+003,9.637089e+001
3.481993e+003,9.639117e+001
3.482476e+003,9.640992e+001
3.482958e+003,9.642703e+001
3.483440e+003,9.644247e+001
3.483922e+003,9.645597e+001
3.484404e+003,9.646728e+001
3.484886e+003,9.647642e+001
3.485368e+003,9.648412e+001
3.485850e+003,9.649171e+001
3.486333e+003,9.650117e+001
3.486815e+003,9.651432e+001
3.487297e+003,9.653226e+001
3.487779e+003,9.655468e+001
3.488261e+003,9.657978e+001
3.488743e+003,9.660466e+001
3.489225e+003,9.662624e+001
3.489708e+003,9.664232e+001
3.490190e+003,9.665234e+001
3.490672e+003,9.665765e+001
3.491154e+003,9.666101e+001
3.491636e+003,9.666563e+001
3.492118e+003,9.667408e+001
3.492600e+003,9.668726e+001
3.493083e+003,9.670447e+001
3.493565e+003,9.672343e+001
3.494047e+003,9.674152e+001
3.494529e+003,9.675659e+001
3.495011e+003,9.676799e+001
3.495493e+003,9.677645e+001
3.495975e+003,9.678391e+001
3.496458e+003,9.679259e+001
3.496939e+003,9.680414e+001
3.497422e+003,9.681892e+001
3.497904e+003,9.683607e+001
3.498386e+003,9.685377e+001
3.498868e+003,9.686995e+001
3.499350e+003,9.688303e+001
3.499833e+003,9.689216e+001
3.500314e+003,9.689758e+001
3.500797e+003,9.690033e+001
3.501279e+003,9.690176e+001
3.501761e+003,9.690337e+001
3.502243e+003,9.690643e+001
3.502725e+003,9.691182e+001
3.503207e+003,9.692011e+001
3.503689e+003,9.693153e+001
3.504172e+003,9.694589e+001
3.504654e+003,9.696280e+001
3.505136e+003,9.698136e+001
3.505618e+003,9.700050e+001
3.506100e+003,9.701899e+001
3.506582e+003,9.703576e+001
3.507064e+003,9.705005e+001
3.507547e+003,9.706172e+001
3.508029e+003,9.707121e+001
3.508511e+003,9.707949e+001
3.508993e+003,9.708772e+001
3.509475e+003,9.709699e+001
3.509957e+003,9.710793e+001
3.510439e+003,9.712064e+001
3.510922e+003,9.713449e+001
3.511404e+003,9.714867e+001
3.511886e+003,9.716221e+001
3.512368e+003,9.717451e+001
3.512850e+003,9.718545e+001
3.513332e+003,9.719538e+001
3.513814e+003,9.720504e+001
3.514296e+003,9.721522e+001
3.514779e+003,9.722643e+001
3.515261e+003,9.723878e+001
3.515743e+003,9.725193e+001
3.516225e+003,9.726513e+001
3.516707e+003,9.727760e+001
3.517189e+003,9.728884e+001
3.517671e+003,9.729853e+001
3.518154e+003,9.730686e+001
3.518636e+003,9.731411e+001
3.519118e+003,9.732061e+001
3.519600e+003,9.732662e+001
3.520082e+003,9.733215e+001
3.520564e+003,9.733730e+001
3.521046e+003,9.734235e+001
3.521529e+003,9.734782e+001
3.522011e+003,9.735445e+001
3.522493e+003,9.736309e+001
3.522975e+003,9.737423e+001
3.523457e+003,9.738776e+001
3.523939e+003,9.740300e+001
3.524421e+003,9.741884e+001
3.524904e+003,9.743408e+001
3.525386e+003,9.744785e+001
3.525868e+003,9.745989e+001
3.526350e+003,9.747055e+001
3.526832e+003,9.748049e+001
3.527314e+003,9.749040e+001
3.527796e+003,9.750068e+001
3.528279e+003,9.751131e+001
3.528761e+003,9.752200e+001
3.529243e+003,9.753250e+001
3.529725e+003,9.754288e+001
3.530207e+003,9.755357e+001
3.530689e+003,9.756544e+001
3.531171e+003,9.757932e+001
3.531653e+003,9.759566e+001
3.532135e+003,9.761428e+001
3.532618e+003,9.763431e+001
3.533100e+003,9.765430e+001
3.533582e+003,9.767270e+001
3.534064e+003,9.768814e+001
3.534546e+003,9.769997e+001
3.535028e+003,9.770821e+001
3.535510e+003,9.771373e+001
3.535993e+003,9.771802e+001
3.536475e+003,9.772267e+001
3.536957e+003,9.772914e+001
3.537439e+003,9.773833e+001
3.537921e+003,9.775035e+001
3.538403e+003,9.776450e+001
3.538885e+003,9.777937e+001
