3.301674e+003,9.171410e+001
3.302156e+003,9.170915e+001
3.302638e+003,9.170525e+001
3.303121e+003,9.170277e+001
3.303603e+003,9.170195e+001
3.304085e+003,9.170269e+001
3.304567e+003,9.170461e+001
3.305049e+003,9.170705e+001
3.305531e+003,9.170936e+001
3.306013e+003,9.171106e+001
3.306495e+003,9.171212e+001
3.306978e+003,9.171286e+001
3.307460e+003,9.171410e+001
3.307942e+003,9.171664e+001
3.308424e+003,9.172124e+001
3.308906e+003,9.172834e+001
3.309388e+003,9.173794e+001
3.309870e+003,9.174975e+001
3.310353e+003,9.176329e+001
3.310835e+003,9.177797e+001
3.311317e+003,9.179321e+001
3.311799e+003,9.180839e+001
3.312281e+003,9.182301e+001
3.312763e+003,9.183659e+001
3.313245e+003,9.184898e+001
3.313728e+003,9.186036e+001
3.314210e+003,9.187119e+001
3.314692e+003,9.188227e+001
3.315174e+003,9.189435e+001
3.315656e+003,9.190784e+001
3.316138e+003,9.192278e+001
3.316620e+003,9.193868e+001
3.317103e+003,9.195498e+001
3.317584e+003,9.197117e+001
3.318067e+003,9.198722e+001
3.318549e+003,9.200367e+001
3.319031e+003,9.202139e+001
3.319513e+003,9.204123e+001
3.319995e+003,9.206356e+001
3.320478e+003,9.208810e+001
3.320959e+003,9.211387e+001
3.321442e+003,9.213945e+001
3.321924e+003,9.216351e+001
3.322406e+003,9.218510e+001
3.322888e+003,9.220396e+001
3.323370e+003,9.222047e+001
3.323852e+003,9.223547e+001
3.324334e+003,9.224998e+001
3.324817e+003,9.226488e+001
3.325299e+003,9.228090e+001
3.325781e+003,9.229852e+001
3.326263e+003,9.231781e+001
3.326745e+003,9.233865e+001
3.327227e+003,9.236048e+001
3.327709e+003,9.238254e+001
3.328192e+003,9.240384e+001
3.328674e+003,9.242355e+001
3.329156e+003,9.244115e+001
3.329638e+003,9.245675e+001
3.330120e+003,9.247088e+001
3.330602e+003,9.248441e+001
3.331084e+003,9.249806e+001
3.331567e+003,9.251215e+001
3.332049e+003,9.252637e+001
3.332531e+003,9.253991e+001
3.333013e+003,9.255199e+001
3.333495e+003,9.256219e+001
3.333977e+003,9.257085e+001
3.334459e+003,9.257896e+001
3.334941e+003,9.258792e+001
3.335424e+003,9.259885e+001
3.335906e+003,9.261229e+001
3.336388e+003,9.262778e+001
3.336870e+003,9.264413e+001
3.337352e+003,9.265975e+001
3.337834e+003,9.267323e+001
3.338316e+003,9.268375e+001
3.338799e+003,9.269125e+001
3.339281e+003,9.269621e+001
3.339763e+003,9.269962e+001
3.340245e+003,9.270233e+001
3.340727e+003,9.270515e+001
3.341209e+003,9.270866e+001
3.341691e+003,9.271317e+001
3.342174e+003,9.271891e+001
3.342656e+003,9.272593e+001
3.343138e+003,9.273394e+001
3.343620e+003,9.274239e+001
3.344102e+003,9.275043e+001
3.344584e+003,9.275716e+001
3.345066e+003,9.276192e+001
3.345549e+003,9.276454e+001
3.346031e+003,9.276555e+001
3.346513e+003,9.276597e+001
3.346995e+003,9.276702e+001
3.347477e+003,9.276972e+001
3.347959e+003,9.277446e+001
3.348441e+003,9.278089e+001
3.348924e+003,9.278828e+001
3.349406e+003,9.279561e+001
3.349888e+003,9.280220e+001
3.350370e+003,9.280796e+001
3.350852e+003,9.281329e+001
3.351334e+003,9.281904e+001
3.351816e+003,9.282615e+001
3.352298e+003,9.283524e+001
3.352781e+003,9.284656e+001
3.353263e+003,9.285986e+001
3.353745e+003,9.287460e+001
3.354227e+003,9.289008e+001
3.354709e+003,9.290574e+001
3.355191e+003,9.292122e+001
3.355673e+003,9.293638e+001
3.356156e+003,9.295127e+001
3.356638e+003,9.296610e+001
3.357120e+003,9.298106e+001
3.357602e+003,9.299635e+001
3.358084e+003,9.301208e+001
3.358566e+003,9.302830e+001
3.359048e+003,9.304494e+001
3.359531e+003,9.306191e+001
3.360013e+003,9.307896e+001
3.360495e+003,9.309603e+001
3.360977e+003,9.311296e+001
3.361459e+003,9.312989e+001
3.361941e+003,9.314689e+001
3.362423e+003,9.316410e+001
3.362906e+003,9.318161e+001
3.363388e+003,9.319926e+001
3.363870e+003,9.321683e+001
3.364352e+003,9.323381e+001
3.364834e+003,9.324982e+001
3.365316e+003,9.326446e+001
3.365798e+003,9.327767e+001
3.366281e+003,9.328974e+001
3.366763e+003,9.330125e+001
3.367245e+003,9.331304e+001
3.367727e+003,9.332582e+001
3.368209e+003,9.334003e+001
3.368691e+003,9.335568e+001
3.369173e+003,9.337219e+001
3.369655e+003,9.338847e+001
3.370137e+003,9.340328e+001
3.370620e+003,9.341548e+001
3.371102e+003,9.342440e+001
3.371584e+003,9.343002e+001
3.372066e+003,9.343299e+001
3.372548e+003,9.343436e+001
3.373030e+003,9.343521e+001
3.373512e+003,9.343637e+001
3.373995e+003,9.343822e+001
3.374477e+003,9.344057e+001
3.374959e+003,9.344296e+001
3.375441e+003,9.344489e+001
3.375923e+003,9.344619e+001
3.376405e+003,9.344694e+001
3.376887e+003,9.344753e+001
3.377370e+003,9.344820e+001
3.377852e+003,9.344914e+001
3.378334e+003,9.345003e+001
3.378816e+003,9.345022e+001
3.379298e+003,9.344894e+001
3.379780e+003,9.344553e+001
3.380262e+003,9.343963e+001
3.380745e+003,9.343138e+001
3.381227e+003,9.342133e+001
3.381709e+003,9.341019e+001
3.382191e+003,9.339874e+001
3.382673e+003,9.338763e+001
3.383155e+003,9.337733e+001
3.383637e+003,9.336806e+001
3.384120e+003,9.335979e+001
3.384602e+003,9.335230e+001
3.385084e+003,9.334509e+001
3.385566e+003,9.333749e+001
3.386048e+003,9.332869e+001
3.386530e+003,9.331808e+001
3.387012e+003,9.330540e+001
3.387494e+003,9.329102e+001
3.387977e+003,9.327586e+001
3.388459e+003,9.326134e+001
3.388941e+003,9.324889e+001
3.389423e+003,9.323963e+001
3.389905e+003,9.323401e+001
3.390387e+003,9.323159e+001
3.390869e+003,9.323138e+001
3.391352e+003,9.323206e+001
3.391834e+003,9.323241e+001
3.392316e+003,9.323171e+001
3.392798e+003,9.322987e+001
3.393280e+003,9.322749e+001
3.393762e+003,9.322546e+001
3.394244e+003,9.322489e+001
3.394727e+003,9.322655e+001
3.395209e+003,9.323088e+001
3.395691e+003,9.323770e+001
3.396173e+003,9.324641e+001
3.396655e+003,9.325603e+001
3.397137e+003,9.326533e+001
3.397619e+003,9.327319e+001
3.398102e+003,9.327863e+001
3.398583e+003,9.328101e+001
3.399066e+003,9.328010e+001
3.399548e+003,9.327602e+001
3.400030e+003,9.326920e+001
3.400512e+003,9.326025e+001
3.400994e+003,9.325000e+001
3.401477e+003,9.323939e+001
3.401958e+003,9.322941e+001
3.402441e+003,9.322108e+001
3.402923e+003,9.321523e+001
3.403405e+003,9.321241e+001
3.403887e+003,9.321268e+001
3.404369e+003,9.321560e+001
3.404851e+003,9.322047e+001
3.405333e+003,9.322659e+001
3.405816e+003,9.323354e+001
3.406298e+003,9.324152e+001
3.406780e+003,9.325153e+001
3.407262e+003,9.326486e+001
3.407744e+003,9.328292e+001
3.408226e+003,9.330669e+001
3.408708e+003,9.333643e+001
3.409191e+003,9.337170e+001
3.409673e+003,9.341152e+001
3.410155e+003,9.345490e+001
3.410637e+003,9.350111e+001
3.411119e+003,9.354985e+001
3.411601e+003,9.360121e+001
3.412083e+003,9.365537e+001
3.412566e+003,9.371230e+001
3.413048e+003,9.377161e+001
3.413530e+003,9.383273e+001
3.414012e+003,9.389511e+001
3.414494e+003,9.395848e+001
3.414976e+003,9.402306e+001
3.415458e+003,9.408936e+001
3.415940e+003,9.415785e+001
3.416423e+003,9.422856e+001
3.416905e+003,9.430074e+001
3.417387e+003,9.437287e+001
3.417869e+003,9.444303e+001
3.418351e+003,9.450930e+001
3.418833e+003,9.457048e+001
3.419315e+003,9.462636e+001
3.419798e+003,9.467780e+001
3.420280e+003,9.472655e+001
3.420762e+003,9.477464e+001
3.421244e+003,9.482379e+001
3.421726e+003,9.487495e+001
3.422208e+003,9.492815e+001
3.422690e+003,9.498238e+001
3.423173e+003,9.503603e+001
3.423655e+003,9.508720e+001
3.424137e+003,9.513429e+001
3.424619e+003,9.517625e+001
3.425101e+003,9.521279e+001
3.425583e+003,9.524439e+001
3.426065e+003,9.527215e+001
3.426548e+003,9.529738e+001
3.427030e+003,9.532137e+001
3.427512e+003,9.534509e+001
3.427994e+003,9.536900e+001
3.428476e+003,9.539321e+001
3.428958e+003,9.541757e+001
3.429440e+003,9.544189e+001
3.429923e+003,9.546614e+001
3.430405e+003,9.549047e+001
3.430887e+003,9.551502e+001
3.431369e+003,9.553979e+001
3.431851e+003,9.556446e+001
3.432333e+003,9.558826e+001
3.432815e+003,9.561025e+001
3.433297e+003,9.562949e+001
3.433780e+003,9.564546e+001
3.434262e+003,9.565834e+001
3.434744e+003,9.566896e+001
3.435226e+003,9.567874e+001
3.435708e+003,9.568927e+001
3.436190e+003,9.570200e+001
3.436672e+003,9.571783e+001
3.437155e+003,9.573705e+001
3.437637e+003,9.575936e+001
3.438119e+003,9.578389e+001
3.438601e+003,9.580950e+001
3.439083e+003,9.583491e+001
3.439565e+003,9.585880e+001
3.440047e+003,9.588002e+001
3.440530e+003,9.589774e+001
3.441012e+003,9.591158e+001
3.441494e+003,9.592180e+001
3.441976e+003,9.592934e+001
3.442458e+003,9.593578e+001
3.442940e+003,9.594299e+001
3.443422e+003,9.595273e+001
3.443905e+003,9.596630e+001
3.444387e+003,9.598418e+001
3.444869e+003,9.600589e+001
3.445351e+003,9.603030e+001
3.445833e+003,9.605585e+001
3.446315e+003,9.608102e+001
3.446797e+003,9.610458e+001
3.447280e+003,9.612592e+001
3.447762e+003,9.614487e+001
3.448244e+003,9.616159e+001
3.448726e+003,9.617641e+001
3.449208e+003,9.618955e+001
3.449690e+003,9.620123e+001
3.450172e+003,9.621176e+001
3.450654e+003,9.622157e+001
3.451136e+003,9.623154e+001
3.451619e+003,9.624278e+001
3.452101e+003,9.625643e+001
3.452583e+003,9.627333e+001
3.453065e+003,9.629368e+001
3.453547e+003,9.631684e+001
3.454029e+003,9.634136e+001
3.454511e+003,9.636535e+001
3.454994e+003,9.638698e+001
3.455476e+003,9.640499e+001
3.455958e+003,9.641914e+001
3.456440e+003,9.643019e+001
3.456922e+003,9.643967e+001
3.457404e+003,9.644946e+001
3.457886e+003,9.646104e+001
3.458369e+003,9.647531e+001
3.458851e+003,9.649223e+001
3.459333e+003,9.651115e+001
3.459815e+003,9.653108e+001
3.460297e+003,9.655112e+001
3.460779e+003,9.657076e+001
3.461261e+003,9.658998e+001
3.461744e+003,9.660899e+001
3.462226e+003,9.662793e+001
3.462708e+003,9.664672e+001
3.463190e+003,9.666483e+001
3.463672e+003,9.668143e+001
3.464154e+003,9.669575e+001
3.464636e+003,9.670734e+001
3.465119e+003,9.671643e+001
3.465601e+003,9.672382e+001
3.466083e+003,9.673090e+001
3.466565e+003,9.673907e+001
3.467047e+003,9.674966e+001
3.467529e+003,9.676334e+001
3.468011e+003,9.678020e+001
3.468493e+003,9.679980e+001
3.468976e+003,9.682123e+001
3.469458e+003,9.684328e+001
3.469940e+003,9.686477e+001
3.470422e+003,9.688449e+001
3.470904e+003,9.690141e+001
3.471386e+003,9.691486e+001
3.471868e+003,9.692451e+001
3.472351e+003,9.693067e+001
3.472833e+003,9.693424e+001
3.473315e+003,9.693657e+001
3.473797e+003,9.693927e+001
3.474279e+003,9.694384e+001
3.474761e+003,9.695114e+001
3.475243e+003,9.696128e+001
3.475726e+003,9.697351e+001
3.476208e+003,9.698664e+001
3.476690e+003,9.699937e+001
3.477172e+003,9.701095e+001
3.477654e+003,9.702136e+001
3.478136e+003,9.703152e+001
3.478618e+003,9.704276e+001
3.479101e+003,9.705642e+001
3.479583e+003,9.707319e+001
3.480065e+003,9.709290e+001
3.480547e+003,9.711433e+001
3.481029e+003,9.713575e+001
3.481511e+003,9.715547e+001
3.481993e+003,9.717245e+001
3.482476e+003,9.718673e+001
3.482958e+003,9.719932e+001
3.483440e+003,9.721178e+001
3.483922e+003,9.722559e+001
3.484404e+003,9.724140e+001
3.484886e+003,9.725892e+001
3.485368e+003,9.727672e+001
3.485850e+003,9.729283e+001
3.486333e+003,9.730525e+001
3.486815e+003,9.731259e+001
3.487297e+003,9.731441e+001
3.487779e+003,9.731136e+001
3.488261e+003,9.730488e+001
3.488743e+003,9.729687e+001
3.489225e+003,9.728931e+001
3.489708e+003,9.728386e+001
3.490190e+003,9.728169e+001
3.490672e+003,9.728340e+001
3.491154e+003,9.728897e+001
3.491636e+003,9.729787e+001
3.492118e+003,9.730911e+001
3.492600e+003,9.732150e+001
3.493083e+003,9.733381e+001
3.493565e+003,9.734508e+001
3.494047e+003,9.735485e+001
3.494529e+003,9.736308e+001
3.495011e+003,9.737019e+001
3.495493e+003,9.737668e+001
3.495975e+003,9.738298e+001
3.496458e+003,9.738931e+001
3.496939e+003,9.739565e+001
3.497422e+003,9.740197e+001
3.497904e+003,9.740845e+001
3.498386e+003,9.741547e+001
3.498868e+003,9.742352e+001
3.499350e+003,9.743307e+001
3.499833e+003,9.744410e+001
3.500314e+003,9.745611e+001
3.500797e+003,9.746809e+001
3.501279e+003,9.747894e+001
3.501761e+003,9.748784e+001
3.502243e+003,9.749470e+001
3.502725e+003,9.750000e+001
3.503207e+003,9.750479e+001
3.503689e+003,9.750994e+001
3.504172e+003,9.751588e+001
3.504654e+003,9.752232e+001
3.505136e+003,9.752858e+001
3.505618e+003,9.753396e+001
3.506100e+003,9.753844e+001
3.506582e+003,9.754278e+001
3.507064e+003,9.754839e+001
3.507547e+003,9.755689e+001
3.508029e+003,9.756940e+001
3.508511e+003,9.758584e+001
3.508993e+003,9.760487e+001
3.509475e+003,9.762424e+001
3.509957e+003,9.764136e+001
3.510439e+003,9.765427e+001
3.510922e+003,9.766215e+001
3.511404e+003,9.766518e+001
3.511886e+003,9.766457e+001
3.512368e+003,9.766183e+001
3.512850e+003,9.765845e+001
3.513332e+003,9.765559e+001
3.513814e+003,9.765411e+001
3.514296e+003,9.765469e+001
3.514779e+003,9.765781e+001
3.515261e+003,9.766365e+001
3.515743e+003,9.767201e+001
3.516225e+003,9.768206e+001
3.516707e+003,9.769252e+001
3.517189e+003,9.770197e+001
3.517671e+003,9.770930e+001
3.518154e+003,9.771416e+001
3.518636e+003,9.771708e+001
3.519118e+003,9.771925e+001
3.519600e+003,9.772202e+001
3.520082e+003,9.772629e+001
3.520564e+003,9.773209e+001
3.521046e+003,9.773872e+001
3.521529e+003,9.774518e+001
3.522011e+003,9.775071e+001
3.522493e+003,9.775546e+001
3.522975e+003,9.776051e+001
3.523457e+003,9.776752e+001
3.523939e+003,9.777800e+001
3.524421e+003,9.779273e+001
3.524904e+003,9.781113e+001
3.525386e+003,9.783141e+001
3.525868e+003,9.785120e+001
3.526350e+003,9.786808e+001
3.526832e+003,9.788039e+001
3.527314e+003,9.788761e+001
3.527796e+003,9.789026e+001
3.528279e+003,9.788964e+001
3.528761e+003,9.788747e+001
3.529243e+003,9.788539e+001
3.529725e+003,9.788474e+001
3.530207e+003,9.788664e+001
3.530689e+003,9.789179e+001
3.531171e+003,9.790065e+001
3.531653e+003,9.791319e+001
3.532135e+003,9.792902e+001
3.532618e+003,9.794720e+001
3.533100e+003,9.796650e+001
3.533582e+003,9.798554e+001
3.534064e+003,9.800307e+001
3.534546e+003,9.801814e+001
3.535028e+003,9.803021e+001
3.535510e+003,9.803909e+001
3.535993e+003,9.804488e+001
3.536475e+003,9.804793e+001
3.536957e+003,9.804874e+001
3.537439e+003,9.804796e+001
3.537921e+003,9.804647e+001
3.538403e+003,9.804509e+001
3.538885e+003,9.804471e+001
