3.301674e+003,9.287999e+001
3.302156e+003,9.288070e+001
3.302638e+003,9.287963e+001
3.303121e+003,9.287712e+001
3.303603e+003,9.287418e+001
3.304085e+003,9.287215e+001
3.304567e+003,9.287235e+001
3.305049e+003,9.287554e+001
3.305531e+003,9.288165e+001
3.306013e+003,9.288977e+001
3.306495e+003,9.289848e+001
3.306978e+003,9.290630e+001
3.307460e+003,9.291209e+001
3.307942e+003,9.291554e+001
3.308424e+003,9.291709e+001
3.308906e+003,9.291765e+001
3.309388e+003,9.291821e+001
3.309870e+003,9.291949e+001
3.310353e+003,9.292181e+001
3.310835e+003,9.292515e+001
3.311317e+003,9.292937e+001
3.311799e+003,9.293444e+001
3.312281e+003,9.294057e+001
3.312763e+003,9.294819e+001
3.313245e+003,9.295770e+001
3.313728e+003,9.296916e+001
3.314210e+003,9.298236e+001
3.314692e+003,9.299664e+001
3.315174e+003,9.301127e+001
3.315656e+003,9.302573e+001
3.316138e+003,9.303993e+001
3.316620e+003,9.305427e+001
3.317103e+003,9.306948e+001
3.317584e+003,9.308644e+001
3.318067e+003,9.310571e+001
3.318549e+003,9.312733e+001
3.319031e+003,9.315081e+001
3.319513e+003,9.317514e+001
3.319995e+003,9.319919e+001
3.320478e+003,9.322186e+001
3.320959e+003,9.324245e+001
3.321442e+003,9.326078e+001
3.321924e+003,9.327715e+001
3.322406e+003,9.329218e+001
3.322888e+003,9.330665e+001
3.323370e+003,9.332133e+001
3.323852e+003,9.333674e+001
3.324334e+003,9.335318e+001
3.324817e+003,9.337064e+001
3.325299e+003,9.338896e+001
3.325781e+003,9.340784e+001
3.326263e+003,9.342693e+001
3.326745e+003,9.344604e+001
3.327227e+003,9.346495e+001
3.327709e+003,9.348361e+001
3.328192e+003,9.350198e+001
3.328674e+003,9.352008e+001
3.329156e+003,9.353791e+001
3.329638e+003,9.355549e+001
3.330120e+003,9.357262e+001
3.330602e+003,9.358923e+001
3.331084e+003,9.360506e+001
3.331567e+003,9.361994e+001
3.332049e+003,9.363367e+001
3.332531e+003,9.364614e+001
3.333013e+003,9.365739e+001
3.333495e+003,9.366751e+001
3.333977e+003,9.367673e+001
3.334459e+003,9.368537e+001
3.334941e+003,9.369376e+001
3.335424e+003,9.370232e+001
3.335906e+003,9.371130e+001
3.336388e+003,9.372084e+001
3.336870e+003,9.373087e+001
3.337352e+003,9.374108e+001
3.337834e+003,9.375085e+001
3.338316e+003,9.375959e+001
3.338799e+003,9.376668e+001
3.339281e+003,9.377180e+001
3.339763e+003,9.377507e+001
3.340245e+003,9.377707e+001
3.340727e+003,9.377865e+001
3.341209e+003,9.378069e+001
3.341691e+003,9.378397e+001
3.342174e+003,9.378863e+001
3.342656e+003,9.379432e+001
3.343138e+003,9.380027e+001
3.343620e+003,9.380551e+001
3.344102e+003,9.380927e+001
3.344584e+003,9.381125e+001
3.345066e+003,9.381174e+001
3.345549e+003,9.381138e+001
3.346031e+003,9.381110e+001
3.346513e+003,9.381178e+001
3.346995e+003,9.381393e+001
3.347477e+003,9.381771e+001
3.347959e+003,9.382298e+001
3.348441e+003,9.382938e+001
3.348924e+003,9.383655e+001
3.349406e+003,9.384410e+001
3.349888e+003,9.385178e+001
3.350370e+003,9.385931e+001
3.350852e+003,9.386665e+001
3.351334e+003,9.387374e+001
3.351816e+003,9.388097e+001
3.352298e+003,9.388895e+001
3.352781e+003,9.389848e+001
3.353263e+003,9.391053e+001
3.353745e+003,9.392580e+001
3.354227e+003,9.394449e+001
3.354709e+003,9.396632e+001
3.355191e+003,9.399045e+001
3.355673e+003,9.401567e+001
3.356156e+003,9.404074e+001
3.356638e+003,9.406450e+001
3.357120e+003,9.408610e+001
3.357602e+003,9.410495e+001
3.358084e+003,9.412067e+001
3.358566e+003,9.413316e+001
3.359048e+003,9.414251e+001
3.359531e+003,9.414921e+001
3.360013e+003,9.415414e+001
3.360495e+003,9.415865e+001
3.360977e+003,9.416411e+001
3.361459e+003,9.417195e+001
3.361941e+003,9.418297e+001
3.362423e+003,9.419733e+001
3.362906e+003,9.421445e+001
3.363388e+003,9.423321e+001
3.363870e+003,9.425226e+001
3.364352e+003,9.427049e+001
3.364834e+003,9.428711e+001
3.365316e+003,9.430192e+001
3.365798e+003,9.431511e+001
3.366281e+003,9.432716e+001
3.366763e+003,9.433874e+001
3.367245e+003,9.435049e+001
3.367727e+003,9.436298e+001
3.368209e+003,9.437655e+001
3.368691e+003,9.439128e+001
3.369173e+003,9.440679e+001
3.369655e+003,9.442219e+001
3.370137e+003,9.443626e+001
3.370620e+003,9.444786e+001
3.371102e+003,9.445617e+001
3.371584e+003,9.446109e+001
3.372066e+003,9.446341e+001
3.372548e+003,9.446443e+001
3.373030e+003,9.446578e+001
3.373512e+003,9.446862e+001
3.373995e+003,9.447344e+001
3.374477e+003,9.447990e+001
3.374959e+003,9.448707e+001
3.375441e+003,9.449390e+001
3.375923e+003,9.449968e+001
3.376405e+003,9.450417e+001
3.376887e+003,9.450752e+001
3.377370e+003,9.450999e+001
3.377852e+003,9.451151e+001
3.378334e+003,9.451149e+001
3.378816e+003,9.450909e+001
3.379298e+003,9.450359e+001
3.379780e+003,9.449471e+001
3.380262e+003,9.448303e+001
3.380745e+003,9.446993e+001
3.381227e+003,9.445700e+001
3.381709e+003,9.444570e+001
3.382191e+003,9.443679e+001
3.382673e+003,9.443012e+001
3.383155e+003,9.442488e+001
3.383637e+003,9.442002e+001
3.384120e+003,9.441464e+001
3.384602e+003,9.440826e+001
3.385084e+003,9.440083e+001
3.385566e+003,9.439243e+001
3.386048e+003,9.438313e+001
3.386530e+003,9.437286e+001
3.387012e+003,9.436153e+001
3.387494e+003,9.434928e+001
3.387977e+003,9.433678e+001
3.388459e+003,9.432507e+001
3.388941e+003,9.431541e+001
3.389423e+003,9.430881e+001
3.389905e+003,9.430542e+001
3.390387e+003,9.430463e+001
3.390869e+003,9.430505e+001
3.391352e+003,9.430518e+001
3.391834e+003,9.430393e+001
3.392316e+003,9.430124e+001
3.392798e+003,9.429797e+001
3.393280e+003,9.429571e+001
3.393762e+003,9.429600e+001
3.394244e+003,9.429977e+001
3.394727e+003,9.430706e+001
3.395209e+003,9.431680e+001
3.395691e+003,9.432744e+001
3.396173e+003,9.433737e+001
3.396655e+003,9.434549e+001
3.397137e+003,9.435144e+001
3.397619e+003,9.435537e+001
3.398102e+003,9.435789e+001
3.398583e+003,9.435950e+001
3.399066e+003,9.436043e+001
3.399548e+003,9.436055e+001
3.400030e+003,9.435960e+001
3.400512e+003,9.435738e+001
3.400994e+003,9.435392e+001
3.401477e+003,9.434949e+001
3.401958e+003,9.434454e+001
3.402441e+003,9.433941e+001
3.402923e+003,9.433421e+001
3.403405e+003,9.432883e+001
3.403887e+003,9.432302e+001
3.404369e+003,9.431680e+001
3.404851e+003,9.431055e+001
3.405333e+003,9.430529e+001
3.405816e+003,9.430254e+001
3.406298e+003,9.430410e+001
3.406780e+003,9.431157e+001
3.407262e+003,9.432606e+001
3.407744e+003,9.434781e+001
3.408226e+003,9.437626e+001
3.408708e+003,9.441031e+001
3.409191e+003,9.444852e+001
3.409673e+003,9.448967e+001
3.410155e+003,9.453284e+001
3.410637e+003,9.457767e+001
3.411119e+003,9.462404e+001
3.411601e+003,9.467206e+001
3.412083e+003,9.472185e+001
3.412566e+003,9.477350e+001
3.413048e+003,9.482710e+001
3.413530e+003,9.488284e+001
3.414012e+003,9.494109e+001
3.414494e+003,9.500224e+001
3.414976e+003,9.506662e+001
3.415458e+003,9.513416e+001
3.415940e+003,9.520432e+001
3.416423e+003,9.527605e+001
3.416905e+003,9.534795e+001
3.417387e+003,9.541856e+001
3.417869e+003,9.548658e+001
3.418351e+003,9.555112e+001
3.418833e+003,9.561162e+001
3.419315e+003,9.566790e+001
3.419798e+003,9.572008e+001
3.420280e+003,9.576852e+001
3.420762e+003,9.581386e+001
3.421244e+003,9.585695e+001
3.421726e+003,9.589891e+001
3.422208e+003,9.594075e+001
3.422690e+003,9.598331e+001
3.423173e+003,9.602686e+001
3.423655e+003,9.607095e+001
3.424137e+003,9.611468e+001
3.424619e+003,9.615676e+001
3.425101e+003,9.619614e+001
3.425583e+003,9.623223e+001
3.426065e+003,9.626509e+001
3.426548e+003,9.629529e+001
3.427030e+003,9.632360e+001
3.427512e+003,9.635055e+001
3.427994e+003,9.637627e+001
3.428476e+003,9.640028e+001
3.428958e+003,9.642203e+001
3.429440e+003,9.644105e+001
3.429923e+003,9.645735e+001
3.430405e+003,9.647154e+001
3.430887e+003,9.648475e+001
3.431369e+003,9.649814e+001
3.431851e+003,9.651281e+001
3.432333e+003,9.652924e+001
3.432815e+003,9.654744e+001
3.433297e+003,9.656696e+001
3.433780e+003,9.658716e+001
3.434262e+003,9.660730e+001
3.434744e+003,9.662682e+001
3.435226e+003,9.664519e+001
3.435708e+003,9.666209e+001
3.436190e+003,9.667731e+001
3.436672e+003,9.669082e+001
3.437155e+003,9.670297e+001
3.437637e+003,9.671442e+001
3.438119e+003,9.672608e+001
3.438601e+003,9.673897e+001
3.439083e+003,9.675392e+001
3.439565e+003,9.677139e+001
3.440047e+003,9.679136e+001
3.440530e+003,9.681339e+001
3.441012e+003,9.683676e+001
3.441494e+003,9.686060e+001
3.441976e+003,9.688396e+001
3.442458e+003,9.690586e+001
3.442940e+003,9.692537e+001
3.443422e+003,9.694160e+001
3.443905e+003,9.695409e+001
3.444387e+003,9.696300e+001
3.444869e+003,9.696930e+001
3.445351e+003,9.697484e+001
3.445833e+003,9.698195e+001
3.446315e+003,9.699283e+001
3.446797e+003,9.700880e+001
3.447280e+003,9.702970e+001
3.447762e+003,9.705403e+001
3.448244e+003,9.707925e+001
3.448726e+003,9.710289e+001
3.449208e+003,9.712336e+001
3.449690e+003,9.714042e+001
3.450172e+003,9.715534e+001
3.450654e+003,9.717004e+001
3.451136e+003,9.718645e+001
3.451619e+003,9.720553e+001
3.452101e+003,9.722694e+001
3.452583e+003,9.724924e+001
3.453065e+003,9.727057e+001
3.453547e+003,9.728940e+001
3.454029e+003,9.730530e+001
3.454511e+003,9.731902e+001
3.454994e+003,9.733216e+001
3.455476e+003,9.734648e+001
3.455958e+003,9.736321e+001
3.456440e+003,9.738264e+001
3.456922e+003,9.740401e+001
3.457404e+003,9.742597e+001
3.457886e+003,9.744718e+001
3.458369e+003,9.746666e+001
3.458851e+003,9.748421e+001
3.459333e+003,9.750014e+001
3.459815e+003,9.751521e+001
3.460297e+003,9.753008e+001
3.460779e+003,9.754512e+001
3.461261e+003,9.756024e+001
3.461744e+003,9.757509e+001
3.462226e+003,9.758899e+001
3.462708e+003,9.760136e+001
3.463190e+003,9.761179e+001
3.463672e+003,9.762010e+001
3.464154e+003,9.762660e+001
3.464636e+003,9.763190e+001
3.465119e+003,9.763702e+001
3.465601e+003,9.764317e+001
3.466083e+003,9.765141e+001
3.466565e+003,9.766264e+001
3.467047e+003,9.767711e+001
3.467529e+003,9.769453e+001
3.468011e+003,9.771406e+001
3.468493e+003,9.773463e+001
3.468976e+003,9.775513e+001
3.469458e+003,9.777471e+001
3.469940e+003,9.779284e+001
3.470422e+003,9.780921e+001
3.470904e+003,9.782368e+001
3.471386e+003,9.783607e+001
3.471868e+003,9.784634e+001
3.472351e+003,9.785458e+001
3.472833e+003,9.786119e+001
3.473315e+003,9.786699e+001
3.473797e+003,9.787300e+001
3.474279e+003,9.788015e+001
3.474761e+003,9.788893e+001
3.475243e+003,9.789925e+001
3.475726e+003,9.791032e+001
3.476208e+003,9.792120e+001
3.476690e+003,9.793108e+001
3.477172e+003,9.793980e+001
3.477654e+003,9.794801e+001
3.478136e+003,9.795699e+001
3.478618e+003,9.796803e+001
3.479101e+003,9.798212e+001
3.479583e+003,9.799939e+001
3.480065e+003,9.801917e+001
3.480547e+003,9.804025e+001
3.481029e+003,9.806144e+001
3.481511e+003,9.808190e+001
3.481993e+003,9.810129e+001
3.482476e+003,9.811962e+001
3.482958e+003,9.813677e+001
3.483440e+003,9.815232e+001
3.483922e+003,9.816542e+001
3.484404e+003,9.817517e+001
3.484886e+003,9.818115e+001
3.485368e+003,9.818400e+001
3.485850e+003,9.818547e+001
3.486333e+003,9.818800e+001
3.486815e+003,9.819412e+001
3.487297e+003,9.820522e+001
3.487779e+003,9.822111e+001
3.488261e+003,9.823993e+001
3.488743e+003,9.825884e+001
3.489225e+003,9.827493e+001
3.489708e+003,9.828641e+001
3.490190e+003,9.829305e+001
3.490672e+003,9.829618e+001
3.491154e+003,9.829801e+001
3.491636e+003,9.830048e+001
3.492118e+003,9.830471e+001
3.492600e+003,9.831040e+001
3.493083e+003,9.831635e+001
3.493565e+003,9.832112e+001
3.494047e+003,9.832390e+001
3.494529e+003,9.832494e+001
3.495011e+003,9.832572e+001
3.495493e+003,9.832835e+001
3.495975e+003,9.833482e+001
3.496458e+003,9.834629e+001
3.496939e+003,9.836260e+001
3.497422e+003,9.838240e+001
3.497904e+003,9.840356e+001
3.498386e+003,9.842377e+001
3.498868e+003,9.844114e+001
3.499350e+003,9.845459e+001
3.499833e+003,9.846374e+001
3.500314e+003,9.846899e+001
3.500797e+003,9.847122e+001
3.501279e+003,9.847162e+001
3.501761e+003,9.847138e+001
3.502243e+003,9.847166e+001
3.502725e+003,9.847332e+001
3.503207e+003,9.847689e+001
3.503689e+003,9.848248e+001
3.504172e+003,9.848980e+001
3.504654e+003,9.849844e+001
3.505136e+003,9.850797e+001
3.505618e+003,9.851801e+001
3.506100e+003,9.852847e+001
3.506582e+003,9.853928e+001
3.507064e+003,9.855024e+001
3.507547e+003,9.856103e+001
3.508029e+003,9.857113e+001
3.508511e+003,9.858000e+001
3.508993e+003,9.858733e+001
3.509475e+003,9.859318e+001
3.509957e+003,9.859806e+001
3.510439e+003,9.860280e+001
3.510922e+003,9.860812e+001
3.511404e+003,9.861438e+001
3.511886e+003,9.862148e+001
3.512368e+003,9.862895e+001
3.512850e+003,9.863625e+001
3.513332e+003,9.864304e+001
3.513814e+003,9.864950e+001
3.514296e+003,9.865616e+001
3.514779e+003,9.866367e+001
3.515261e+003,9.867245e+001
3.515743e+003,9.868235e+001
3.516225e+003,9.869259e+001
3.516707e+003,9.870207e+001
3.517189e+003,9.870978e+001
3.517671e+003,9.871512e+001
3.518154e+003,9.871833e+001
3.518636e+003,9.872025e+001
3.519118e+003,9.872204e+001
3.519600e+003,9.872480e+001
3.520082e+003,9.872903e+001
3.520564e+003,9.873476e+001
3.521046e+003,9.874139e+001
3.521529e+003,9.874822e+001
3.522011e+003,9.875462e+001
3.522493e+003,9.876027e+001
3.522975e+003,9.876506e+001
3.523457e+003,9.876910e+001
3.523939e+003,9.877257e+001
3.524421e+003,9.877548e+001
3.524904e+003,9.877788e+001
3.525386e+003,9.877995e+001
3.525868e+003,9.878212e+001
3.526350e+003,9.878518e+001
3.526832e+003,9.879014e+001
3.527314e+003,9.879800e+001
3.527796e+003,9.880944e+001
3.528279e+003,9.882454e+001
3.528761e+003,9.884267e+001
3.529243e+003,9.886259e+001
3.529725e+003,9.888271e+001
3.530207e+003,9.890148e+001
3.530689e+003,9.891763e+001
3.531171e+003,9.893057e+001
3.531653e+003,9.894046e+001
3.532135e+003,9.894814e+001
3.532618e+003,9.895486e+001
3.533100e+003,9.896191e+001
3.533582e+003,9.897016e+001
3.534064e+003,9.897972e+001
3.534546e+003,9.898994e+001
3.535028e+003,9.899955e+001
3.535510e+003,9.900725e+001
3.535993e+003,9.901228e+001
3.536475e+003,9.901472e+001
3.536957e+003,9.901575e+001
3.537439e+003,9.901713e+001
3.537921e+003,9.902054e+001
3.538403e+003,9.902691e+001
3.538885e+003,9.903599e+001
