3.301674e+003,8.870524e+001
3.302156e+003,8.871407e+001
3.302638e+003,8.872408e+001
3.303121e+003,8.873447e+001
3.303603e+003,8.874467e+001
3.304085e+003,8.875469e+001
3.304567e+003,8.876510e+001
3.305049e+003,8.877668e+001
3.305531e+003,8.879020e+001
3.306013e+003,8.880598e+001
3.306495e+003,8.882355e+001
3.306978e+003,8.884194e+001
3.307460e+003,8.885975e+001
3.307942e+003,8.887570e+001
3.308424e+003,8.888917e+001
3.308906e+003,8.890039e+001
3.309388e+003,8.891049e+001
3.309870e+003,8.892113e+001
3.310353e+003,8.893391e+001
3.310835e+003,8.894997e+001
3.311317e+003,8.896954e+001
3.311799e+003,8.899210e+001
3.312281e+003,8.901663e+001
3.312763e+003,8.904195e+001
3.313245e+003,8.906725e+001
3.313728e+003,8.909213e+001
3.314210e+003,8.911658e+001
3.314692e+003,8.914069e+001
3.315174e+003,8.916441e+001
3.315656e+003,8.918741e+001
3.316138e+003,8.920933e+001
3.316620e+003,8.923012e+001
3.317103e+003,8.925024e+001
3.317584e+003,8.927086e+001
3.318067e+003,8.929346e+001
3.318549e+003,8.931936e+001
3.319031e+003,8.934906e+001
3.319513e+003,8.938191e+001
3.319995e+003,8.941625e+001
3.320478e+003,8.944990e+001
3.320959e+003,8.948094e+001
3.321442e+003,8.950848e+001
3.321924e+003,8.953289e+001
3.322406e+003,8.955567e+001
3.322888e+003,8.957870e+001
3.323370e+003,8.960341e+001
3.323852e+003,8.963025e+001
3.324334e+003,8.965850e+001
3.324817e+003,8.968664e+001
3.325299e+003,8.971302e+001
3.325781e+003,8.973658e+001
3.326263e+003,8.975732e+001
3.326745e+003,8.977619e+001
3.327227e+003,8.979475e+001
3.327709e+003,8.981453e+001
3.328192e+003,8.983660e+001
3.328674e+003,8.986122e+001
3.329156e+003,8.988793e+001
3.329638e+003,8.991576e+001
3.330120e+003,8.994368e+001
3.330602e+003,8.997064e+001
3.331084e+003,8.999589e+001
3.331567e+003,9.001888e+001
3.332049e+003,9.003929e+001
3.332531e+003,9.005712e+001
3.333013e+003,9.007261e+001
3.333495e+003,9.008635e+001
3.333977e+003,9.009923e+001
3.334459e+003,9.011217e+001
3.334941e+003,9.012605e+001
3.335424e+003,9.014130e+001
3.335906e+003,9.015804e+001
3.336388e+003,9.017584e+001
3.336870e+003,9.019406e+001
3.337352e+003,9.021184e+001
3.337834e+003,9.022839e+001
3.338316e+003,9.024313e+001
3.338799e+003,9.025565e+001
3.339281e+003,9.026591e+001
3.339763e+003,9.027431e+001
3.340245e+003,9.028157e+001
3.340727e+003,9.028888e+001
3.341209e+003,9.029752e+001
3.341691e+003,9.030875e+001
3.342174e+003,9.032329e+001
3.342656e+003,9.034112e+001
3.343138e+003,9.036146e+001
3.343620e+003,9.038293e+001
3.344102e+003,9.040392e+001
3.344584e+003,9.042316e+001
3.345066e+003,9.043996e+001
3.345549e+003,9.045441e+001
3.346031e+003,9.046727e+001
3.346513e+003,9.047949e+001
3.346995e+003,9.049208e+001
3.347477e+003,9.050574e+001
3.347959e+003,9.052080e+001
3.348441e+003,9.053726e+001
3.348924e+003,9.055496e+001
3.349406e+003,9.057352e+001
3.349888e+003,9.059251e+001
3.350370e+003,9.061140e+001
3.350852e+003,9.062965e+001
3.351334e+003,9.064680e+001
3.351816e+003,9.066275e+001
3.352298e+003,9.067779e+001
3.352781e+003,9.069254e+001
3.353263e+003,9.070782e+001
3.353745e+003,9.072439e+001
3.354227e+003,9.074249e+001
3.354709e+003,9.076199e+001
3.355191e+003,9.078235e+001
3.355673e+003,9.080296e+001
3.356156e+003,9.082357e+001
3.356638e+003,9.084433e+001
3.357120e+003,9.086582e+001
3.357602e+003,9.088872e+001
3.358084e+003,9.091340e+001
3.358566e+003,9.093956e+001
3.359048e+003,9.096643e+001
3.359531e+003,9.099273e+001
3.360013e+003,9.101743e+001
3.360495e+003,9.103982e+001
3.360977e+003,9.105991e+001
3.361459e+003,9.107823e+001
3.361941e+003,9.109552e+001
3.362423e+003,9.111238e+001
3.362906e+003,9.112910e+001
3.363388e+003,9.114577e+001
3.363870e+003,9.116226e+001
3.364352e+003,9.117860e+001
3.364834e+003,9.119508e+001
3.365316e+003,9.121205e+001
3.365798e+003,9.123001e+001
3.366281e+003,9.124896e+001
3.366763e+003,9.126859e+001
3.367245e+003,9.128825e+001
3.367727e+003,9.130716e+001
3.368209e+003,9.132465e+001
3.368691e+003,9.134038e+001
3.369173e+003,9.135431e+001
3.369655e+003,9.136657e+001
3.370137e+003,9.137724e+001
3.370620e+003,9.138630e+001
3.371102e+003,9.139361e+001
3.371584e+003,9.139906e+001
3.372066e+003,9.140269e+001
3.372548e+003,9.140479e+001
3.373030e+003,9.140578e+001
3.373512e+003,9.140617e+001
3.373995e+003,9.140624e+001
3.374477e+003,9.140611e+001
3.374959e+003,9.140562e+001
3.375441e+003,9.140460e+001
3.375923e+003,9.140289e+001
3.376405e+003,9.140035e+001
3.376887e+003,9.139690e+001
3.377370e+003,9.139243e+001
3.377852e+003,9.138659e+001
3.378334e+003,9.137898e+001
3.378816e+003,9.136920e+001
3.379298e+003,9.135719e+001
3.379780e+003,9.134322e+001
3.380262e+003,9.132795e+001
3.380745e+003,9.131226e+001
3.381227e+003,9.129684e+001
3.381709e+003,9.128203e+001
3.382191e+003,9.126771e+001
3.382673e+003,9.125332e+001
3.383155e+003,9.123832e+001
3.383637e+003,9.122227e+001
3.384120e+003,9.120519e+001
3.384602e+003,9.118756e+001
3.385084e+003,9.117007e+001
3.385566e+003,9.115357e+001
3.386048e+003,9.113884e+001
3.386530e+003,9.112646e+001
3.387012e+003,9.111688e+001
3.387494e+003,9.111031e+001
3.387977e+003,9.110673e+001
3.388459e+003,9.110571e+001
3.388941e+003,9.110648e+001
3.389423e+003,9.110782e+001
3.389905e+003,9.110843e+001
3.390387e+003,9.110715e+001
3.390869e+003,9.110345e+001
3.391352e+003,9.109751e+001
3.391834e+003,9.109038e+001
3.392316e+003,9.108342e+001
3.392798e+003,9.107815e+001
3.393280e+003,9.107565e+001
3.393762e+003,9.107652e+001
3.394244e+003,9.108082e+001
3.394727e+003,9.108837e+001
3.395209e+003,9.109895e+001
3.395691e+003,9.111224e+001
3.396173e+003,9.112792e+001
3.396655e+003,9.114540e+001
3.397137e+003,9.116374e+001
3.397619e+003,9.118172e+001
3.398102e+003,9.119795e+001
3.398583e+003,9.121149e+001
3.399066e+003,9.122192e+001
3.399548e+003,9.122945e+001
3.400030e+003,9.123479e+001
3.400512e+003,9.123873e+001
3.400994e+003,9.124194e+001
3.401477e+003,9.124475e+001
3.401958e+003,9.124733e+001
3.402441e+003,9.125005e+001
3.402923e+003,9.125368e+001
3.403405e+003,9.125956e+001
3.403887e+003,9.126926e+001
3.404369e+003,9.128429e+001
3.404851e+003,9.130537e+001
3.405333e+003,9.133226e+001
3.405816e+003,9.136373e+001
3.406298e+003,9.139802e+001
3.406780e+003,9.143353e+001
3.407262e+003,9.146944e+001
3.407744e+003,9.150623e+001
3.408226e+003,9.154559e+001
3.408708e+003,9.159005e+001
3.409191e+003,9.164225e+001
3.409673e+003,9.170425e+001
3.410155e+003,9.177688e+001
3.410637e+003,9.185947e+001
3.411119e+003,9.195015e+001
3.411601e+003,9.204613e+001
3.412083e+003,9.214450e+001
3.412566e+003,9.224293e+001
3.413048e+003,9.234013e+001
3.413530e+003,9.243596e+001
3.414012e+003,9.253128e+001
3.414494e+003,9.262729e+001
3.414976e+003,9.272483e+001
3.415458e+003,9.282387e+001
3.415940e+003,9.292339e+001
3.416423e+003,9.302153e+001
3.416905e+003,9.311626e+001
3.417387e+003,9.320610e+001
3.417869e+003,9.329041e+001
3.418351e+003,9.336969e+001
3.418833e+003,9.344533e+001
3.419315e+003,9.351887e+001
3.419798e+003,9.359162e+001
3.420280e+003,9.366425e+001
3.420762e+003,9.373672e+001
3.421244e+003,9.380852e+001
3.421726e+003,9.387909e+001
3.422208e+003,9.394794e+001
3.422690e+003,9.401489e+001
3.423173e+003,9.407986e+001
3.423655e+003,9.414279e+001
3.424137e+003,9.420356e+001
3.424619e+003,9.426203e+001
3.425101e+003,9.431805e+001
3.425583e+003,9.437170e+001
3.426065e+003,9.442316e+001
3.426548e+003,9.447257e+001
3.427030e+003,9.451991e+001
3.427512e+003,9.456470e+001
3.427994e+003,9.460629e+001
3.428476e+003,9.464399e+001
3.428958e+003,9.467753e+001
3.429440e+003,9.470731e+001
3.429923e+003,9.473446e+001
3.430405e+003,9.476051e+001
3.430887e+003,9.478685e+001
3.431369e+003,9.481442e+001
3.431851e+003,9.484327e+001
3.432333e+003,9.487277e+001
3.432815e+003,9.490199e+001
3.433297e+003,9.493017e+001
3.433780e+003,9.495706e+001
3.434262e+003,9.498304e+001
3.434744e+003,9.500876e+001
3.435226e+003,9.503482e+001
3.435708e+003,9.506149e+001
3.436190e+003,9.508854e+001
3.436672e+003,9.511539e+001
3.437155e+003,9.514161e+001
3.437637e+003,9.516695e+001
3.438119e+003,9.519165e+001
3.438601e+003,9.521614e+001
3.439083e+003,9.524096e+001
3.439565e+003,9.526642e+001
3.440047e+003,9.529250e+001
3.440530e+003,9.531897e+001
3.441012e+003,9.534557e+001
3.441494e+003,9.537208e+001
3.441976e+003,9.539849e+001
3.442458e+003,9.542478e+001
3.442940e+003,9.545091e+001
3.443422e+003,9.547667e+001
3.443905e+003,9.550173e+001
3.444387e+003,9.552597e+001
3.444869e+003,9.554955e+001
3.445351e+003,9.557294e+001
3.445833e+003,9.559696e+001
3.446315e+003,9.562251e+001
3.446797e+003,9.565013e+001
3.447280e+003,9.567996e+001
3.447762e+003,9.571167e+001
3.448244e+003,9.574467e+001
3.448726e+003,9.577832e+001
3.449208e+003,9.581202e+001
3.449690e+003,9.584524e+001
3.450172e+003,9.587731e+001
3.450654e+003,9.590739e+001
3.451136e+003,9.593449e+001
3.451619e+003,9.595779e+001
3.452101e+003,9.597709e+001
3.452583e+003,9.599310e+001
3.453065e+003,9.600742e+001
3.453547e+003,9.602224e+001
3.454029e+003,9.603957e+001
3.454511e+003,9.606072e+001
3.454994e+003,9.608576e+001
3.455476e+003,9.611362e+001
3.455958e+003,9.614262e+001
3.456440e+003,9.617115e+001
3.456922e+003,9.619823e+001
3.457404e+003,9.622390e+001
3.457886e+003,9.624892e+001
3.458369e+003,9.627422e+001
3.458851e+003,9.630058e+001
3.459333e+003,9.632799e+001
3.459815e+003,9.635590e+001
3.460297e+003,9.638350e+001
3.460779e+003,9.641005e+001
3.461261e+003,9.643526e+001
3.461744e+003,9.645937e+001
3.462226e+003,9.648293e+001
3.462708e+003,9.650646e+001
3.463190e+003,9.653028e+001
3.463672e+003,9.655433e+001
3.464154e+003,9.657825e+001
3.464636e+003,9.660157e+001
3.465119e+003,9.662384e+001
3.465601e+003,9.664471e+001
3.466083e+003,9.666409e+001
3.466565e+003,9.668198e+001
3.467047e+003,9.669867e+001
3.467529e+003,9.671468e+001
3.468011e+003,9.673079e+001
3.468493e+003,9.674780e+001
3.468976e+003,9.676637e+001
3.469458e+003,9.678657e+001
3.469940e+003,9.680785e+001
3.470422e+003,9.682901e+001
3.470904e+003,9.684861e+001
3.471386e+003,9.686549e+001
3.471868e+003,9.687926e+001
3.472351e+003,9.689055e+001
3.472833e+003,9.690062e+001
3.473315e+003,9.691109e+001
3.473797e+003,9.692323e+001
3.474279e+003,9.693748e+001
3.474761e+003,9.695351e+001
3.475243e+003,9.697047e+001
3.475726e+003,9.698755e+001
3.476208e+003,9.700428e+001
3.476690e+003,9.702076e+001
3.477172e+003,9.703730e+001
3.477654e+003,9.705418e+001
3.478136e+003,9.707117e+001
3.478618e+003,9.708768e+001
3.479101e+003,9.710303e+001
3.479583e+003,9.711689e+001
3.480065e+003,9.712959e+001
3.480547e+003,9.714230e+001
3.481029e+003,9.715641e+001
3.481511e+003,9.717310e+001
3.481993e+003,9.719250e+001
3.482476e+003,9.721373e+001
3.482958e+003,9.723491e+001
3.483440e+003,9.725411e+001
3.483922e+003,9.726983e+001
3.484404e+003,9.728166e+001
3.484886e+003,9.729033e+001
3.485368e+003,9.729741e+001
3.485850e+003,9.730475e+001
3.486333e+003,9.731390e+001
3.486815e+003,9.732597e+001
3.487297e+003,9.734142e+001
3.487779e+003,9.736008e+001
3.488261e+003,9.738145e+001
3.488743e+003,9.740455e+001
3.489225e+003,9.742793e+001
3.489708e+003,9.744984e+001
3.490190e+003,9.746841e+001
3.490672e+003,9.748206e+001
3.491154e+003,9.749007e+001
3.491636e+003,9.749293e+001
3.492118e+003,9.749224e+001
3.492600e+003,9.749038e+001
3.493083e+003,9.748977e+001
3.493565e+003,9.749218e+001
3.494047e+003,9.749834e+001
3.494529e+003,9.750797e+001
3.495011e+003,9.752030e+001
3.495493e+003,9.753432e+001
3.495975e+003,9.754945e+001
3.496458e+003,9.756543e+001
3.496939e+003,9.758201e+001
3.497422e+003,9.759866e+001
3.497904e+003,9.761433e+001
3.498386e+003,9.762748e+001
3.498868e+003,9.763664e+001
3.499350e+003,9.764095e+001
3.499833e+003,9.764055e+001
3.500314e+003,9.763671e+001
3.500797e+003,9.763162e+001
3.501279e+003,9.762775e+001
3.501761e+003,9.762731e+001
3.502243e+003,9.763187e+001
3.502725e+003,9.764211e+001
3.503207e+003,9.765798e+001
3.503689e+003,9.767882e+001
3.504172e+003,9.770345e+001
3.504654e+003,9.773013e+001
3.505136e+003,9.775687e+001
3.505618e+003,9.778137e+001
3.506100e+003,9.780161e+001
3.506582e+003,9.781627e+001
3.507064e+003,9.782526e+001
3.507547e+003,9.782969e+001
3.508029e+003,9.783185e+001
3.508511e+003,9.783440e+001
3.508993e+003,9.783951e+001
3.509475e+003,9.784828e+001
3.509957e+003,9.786044e+001
3.510439e+003,9.787466e+001
3.510922e+003,9.788921e+001
3.511404e+003,9.790273e+001
3.511886e+003,9.791465e+001
3.512368e+003,9.792522e+001
3.512850e+003,9.793526e+001
3.513332e+003,9.794550e+001
3.513814e+003,9.795629e+001
3.514296e+003,9.796744e+001
3.514779e+003,9.797829e+001
3.515261e+003,9.798812e+001
3.515743e+003,9.799641e+001
3.516225e+003,9.800296e+001
3.516707e+003,9.800800e+001
3.517189e+003,9.801199e+001
3.517671e+003,9.801552e+001
3.518154e+003,9.801908e+001
3.518636e+003,9.802329e+001
3.519118e+003,9.802860e+001
3.519600e+003,9.803548e+001
3.520082e+003,9.804416e+001
3.520564e+003,9.805457e+001
3.521046e+003,9.806623e+001
3.521529e+003,9.807831e+001
3.522011e+003,9.808978e+001
3.522493e+003,9.809971e+001
3.522975e+003,9.810744e+001
3.523457e+003,9.811278e+001
3.523939e+003,9.811600e+001
3.524421e+003,9.811759e+001
3.524904e+003,9.811822e+001
3.525386e+003,9.811858e+001
3.525868e+003,9.811938e+001
3.526350e+003,9.812130e+001
3.526832e+003,9.812506e+001
3.527314e+003,9.813128e+001
3.527796e+003,9.814041e+001
3.528279e+003,9.815270e+001
3.528761e+003,9.816797e+001
3.529243e+003,9.818591e+001
3.529725e+003,9.820604e+001
3.530207e+003,9.822768e+001
3.530689e+003,9.825000e+001
3.531171e+003,9.827194e+001
3.531653e+003,9.829217e+001
3.532135e+003,9.830920e+001
3.532618e+003,9.832190e+001
3.533100e+003,9.832969e+001
3.533582e+003,9.833318e+001
3.534064e+003,9.833401e+001
3.534546e+003,9.833475e+001
3.535028e+003,9.833800e+001
3.535510e+003,9.834573e+001
3.535993e+003,9.835846e+001
3.536475e+003,9.837520e+001
3.536957e+003,9.839367e+001
3.537439e+003,9.841130e+001
3.537921e+003,9.842592e+001
3.538403e+003,9.843639e+001
3.538885e+003,9.844274e+001
