3.301675e+003,9.156052e+001
3.302157e+003,9.156811e+001
3.302639e+003,9.157568e+001
3.303121e+003,9.158302e+001
3.303603e+003,9.159019e+001
3.304085e+003,9.159756e+001
3.304568e+003,9.160528e+001
3.305050e+003,9.161349e+001
3.305532e+003,9.162199e+001
3.306014e+003,9.163054e+001
3.306496e+003,9.163881e+001
3.306978e+003,9.164672e+001
3.307460e+003,9.165430e+001
3.307943e+003,9.166188e+001
3.308425e+003,9.166982e+001
3.308907e+003,9.167861e+001
3.309389e+003,9.168863e+001
3.309871e+003,9.170024e+001
3.310353e+003,9.171363e+001
3.310835e+003,9.172882e+001
3.311318e+003,9.174561e+001
3.311800e+003,9.176368e+001
3.312282e+003,9.178255e+001
3.312764e+003,9.180180e+001
3.313246e+003,9.182112e+001
3.313728e+003,9.184059e+001
3.314210e+003,9.186059e+001
3.314692e+003,9.188165e+001
3.315175e+003,9.190432e+001
3.315657e+003,9.192890e+001
3.316139e+003,9.195524e+001
3.316621e+003,9.198283e+001
3.317103e+003,9.201079e+001
3.317585e+003,9.203828e+001
3.318067e+003,9.206461e+001
3.318550e+003,9.208961e+001
3.319032e+003,9.211338e+001
3.319514e+003,9.213628e+001
3.319996e+003,9.215883e+001
3.320478e+003,9.218138e+001
3.320960e+003,9.220416e+001
3.321442e+003,9.222715e+001
3.321925e+003,9.225021e+001
3.322407e+003,9.227307e+001
3.322889e+003,9.229549e+001
3.323371e+003,9.231733e+001
3.323853e+003,9.233849e+001
3.324335e+003,9.235915e+001
3.324817e+003,9.237960e+001
3.325300e+003,9.240019e+001
3.325782e+003,9.242127e+001
3.326264e+003,9.244299e+001
3.326746e+003,9.246510e+001
3.327228e+003,9.248709e+001
3.327710e+003,9.250813e+001
3.328192e+003,9.252745e+001
3.328675e+003,9.254456e+001
3.329157e+003,9.255939e+001
3.329639e+003,9.257243e+001
3.330121e+003,9.258452e+001
3.330603e+003,9.259662e+001
3.331085e+003,9.260942e+001
3.331567e+003,9.262318e+001
3.332049e+003,9.263780e+001
3.332531e+003,9.265278e+001
3.333014e+003,9.266762e+001
3.333496e+003,9.268196e+001
3.333978e+003,9.269569e+001
3.334460e+003,9.270879e+001
3.334942e+003,9.272138e+001
3.335424e+003,9.273342e+001
3.335906e+003,9.274474e+001
3.336389e+003,9.275507e+001
3.336871e+003,9.276428e+001
3.337353e+003,9.277229e+001
3.337835e+003,9.277937e+001
3.338317e+003,9.278585e+001
3.338799e+003,9.279216e+001
3.339281e+003,9.279858e+001
3.339764e+003,9.280534e+001
3.340246e+003,9.281236e+001
3.340728e+003,9.281973e+001
3.341210e+003,9.282740e+001
3.341692e+003,9.283542e+001
3.342174e+003,9.284385e+001
3.342656e+003,9.285268e+001
3.343139e+003,9.286176e+001
3.343621e+003,9.287090e+001
3.344103e+003,9.287980e+001
3.344585e+003,9.288829e+001
3.345067e+003,9.289646e+001
3.345549e+003,9.290454e+001
3.346031e+003,9.291290e+001
3.346514e+003,9.292194e+001
3.346996e+003,9.293185e+001
3.347478e+003,9.294270e+001
3.347960e+003,9.295427e+001
3.348442e+003,9.296628e+001
3.348924e+003,9.297836e+001
3.349406e+003,9.299020e+001
3.349888e+003,9.300159e+001
3.350371e+003,9.301231e+001
3.350853e+003,9.302229e+001
3.351335e+003,9.303167e+001
3.351817e+003,9.304073e+001
3.352299e+003,9.305008e+001
3.352781e+003,9.306038e+001
3.353263e+003,9.307237e+001
3.353746e+003,9.308652e+001
3.354228e+003,9.310291e+001
3.354710e+003,9.312110e+001
3.355192e+003,9.314040e+001
3.355674e+003,9.315990e+001
3.356156e+003,9.317893e+001
3.356638e+003,9.319714e+001
3.357121e+003,9.321460e+001
3.357603e+003,9.323161e+001
3.358085e+003,9.324856e+001
3.358567e+003,9.326563e+001
3.359049e+003,9.328281e+001
3.359531e+003,9.329983e+001
3.360013e+003,9.331651e+001
3.360496e+003,9.333273e+001
3.360978e+003,9.334864e+001
3.361460e+003,9.336459e+001
3.361942e+003,9.338098e+001
3.362424e+003,9.339809e+001
3.362906e+003,9.341603e+001
3.363388e+003,9.343468e+001
3.363871e+003,9.345369e+001
3.364353e+003,9.347276e+001
3.364835e+003,9.349144e+001
3.365317e+003,9.350935e+001
3.365799e+003,9.352605e+001
3.366281e+003,9.354102e+001
3.366763e+003,9.355380e+001
3.367245e+003,9.356408e+001
3.367728e+003,9.357186e+001
3.368210e+003,9.357763e+001
3.368692e+003,9.358219e+001
3.369174e+003,9.358648e+001
3.369656e+003,9.359132e+001
3.370138e+003,9.359703e+001
3.370620e+003,9.360342e+001
3.371103e+003,9.360983e+001
3.371585e+003,9.361538e+001
3.372067e+003,9.361932e+001
3.372549e+003,9.362127e+001
3.373031e+003,9.362127e+001
3.373513e+003,9.361970e+001
3.373995e+003,9.361699e+001
3.374478e+003,9.361353e+001
3.374960e+003,9.360944e+001
3.375442e+003,9.360468e+001
3.375924e+003,9.359905e+001
3.376406e+003,9.359255e+001
3.376888e+003,9.358517e+001
3.377370e+003,9.357695e+001
3.377853e+003,9.356781e+001
3.378334e+003,9.355755e+001
3.378817e+003,9.354567e+001
3.379299e+003,9.353185e+001
3.379781e+003,9.351590e+001
3.380263e+003,9.349821e+001
3.380745e+003,9.347966e+001
3.381228e+003,9.346162e+001
3.381709e+003,9.344537e+001
3.382192e+003,9.343188e+001
3.382674e+003,9.342139e+001
3.383156e+003,9.341341e+001
3.383638e+003,9.340677e+001
3.384120e+003,9.340015e+001
3.384602e+003,9.339244e+001
3.385084e+003,9.338299e+001
3.385567e+003,9.337180e+001
3.386049e+003,9.335925e+001
3.386531e+003,9.334590e+001
3.387013e+003,9.333222e+001
3.387495e+003,9.331840e+001
3.387977e+003,9.330453e+001
3.388459e+003,9.329073e+001
3.388942e+003,9.327738e+001
3.389424e+003,9.326524e+001
3.389906e+003,9.325533e+001
3.390388e+003,9.324866e+001
3.390870e+003,9.324580e+001
3.391352e+003,9.324668e+001
3.391834e+003,9.325045e+001
3.392317e+003,9.325563e+001
3.392799e+003,9.326064e+001
3.393281e+003,9.326417e+001
3.393763e+003,9.326563e+001
3.394245e+003,9.326530e+001
3.394727e+003,9.326411e+001
3.395209e+003,9.326306e+001
3.395691e+003,9.326302e+001
3.396174e+003,9.326418e+001
3.396656e+003,9.326590e+001
3.397138e+003,9.326700e+001
3.397620e+003,9.326614e+001
3.398102e+003,9.326224e+001
3.398584e+003,9.325480e+001
3.399066e+003,9.324405e+001
3.399549e+003,9.323086e+001
3.400031e+003,9.321646e+001
3.400513e+003,9.320198e+001
3.400995e+003,9.318837e+001
3.401477e+003,9.317615e+001
3.401959e+003,9.316546e+001
3.402441e+003,9.315627e+001
3.402924e+003,9.314850e+001
3.403406e+003,9.314215e+001
3.403888e+003,9.313728e+001
3.404370e+003,9.313426e+001
3.404852e+003,9.313346e+001
3.405334e+003,9.313534e+001
3.405816e+003,9.314028e+001
3.406299e+003,9.314870e+001
3.406781e+003,9.316090e+001
3.407263e+003,9.317719e+001
3.407745e+003,9.319778e+001
3.408227e+003,9.322296e+001
3.408709e+003,9.325296e+001
3.409191e+003,9.328802e+001
3.409674e+003,9.332826e+001
3.410156e+003,9.337363e+001
3.410638e+003,9.342386e+001
3.411120e+003,9.347834e+001
3.411602e+003,9.353631e+001
3.412084e+003,9.359691e+001
3.412566e+003,9.365927e+001
3.413048e+003,9.372272e+001
3.413531e+003,9.378674e+001
3.414013e+003,9.385093e+001
3.414495e+003,9.391491e+001
3.414977e+003,9.397825e+001
3.415459e+003,9.404047e+001
3.415941e+003,9.410122e+001
3.416423e+003,9.416034e+001
3.416906e+003,9.421810e+001
3.417388e+003,9.427509e+001
3.417870e+003,9.433203e+001
3.418352e+003,9.438950e+001
3.418834e+003,9.444770e+001
3.419316e+003,9.450636e+001
3.419798e+003,9.456474e+001
3.420281e+003,9.462192e+001
3.420763e+003,9.467720e+001
3.421245e+003,9.473028e+001
3.421727e+003,9.478130e+001
3.422209e+003,9.483067e+001
3.422691e+003,9.487895e+001
3.423173e+003,9.492642e+001
3.423656e+003,9.497311e+001
3.424138e+003,9.501876e+001
3.424620e+003,9.506317e+001
3.425102e+003,9.510630e+001
3.425584e+003,9.514840e+001
3.426066e+003,9.518998e+001
3.426548e+003,9.523171e+001
3.427031e+003,9.527409e+001
3.427513e+003,9.531745e+001
3.427995e+003,9.536173e+001
3.428477e+003,9.540676e+001
3.428959e+003,9.545226e+001
3.429441e+003,9.549799e+001
3.429923e+003,9.554368e+001
3.430405e+003,9.558920e+001
3.430887e+003,9.563422e+001
3.431370e+003,9.567845e+001
3.431852e+003,9.572163e+001
3.432334e+003,9.576356e+001
3.432816e+003,9.580420e+001
3.433298e+003,9.584377e+001
3.433780e+003,9.588249e+001
3.434262e+003,9.592068e+001
3.434745e+003,9.595833e+001
3.435227e+003,9.599548e+001
3.435709e+003,9.603185e+001
3.436191e+003,9.606731e+001
3.436673e+003,9.610175e+001
3.437155e+003,9.613525e+001
3.437637e+003,9.616785e+001
3.438120e+003,9.619973e+001
3.438602e+003,9.623087e+001
3.439084e+003,9.626124e+001
3.439566e+003,9.629073e+001
3.440048e+003,9.631943e+001
3.440530e+003,9.634747e+001
3.441012e+003,9.637521e+001
3.441495e+003,9.640287e+001
3.441977e+003,9.643060e+001
3.442459e+003,9.645821e+001
3.442941e+003,9.648534e+001
3.443423e+003,9.651163e+001
3.443905e+003,9.653683e+001
3.444387e+003,9.656116e+001
3.444870e+003,9.658518e+001
3.445352e+003,9.660966e+001
3.445834e+003,9.663534e+001
3.446316e+003,9.666255e+001
3.446798e+003,9.669120e+001
3.447280e+003,9.672069e+001
3.447762e+003,9.675024e+001
3.448244e+003,9.677906e+001
3.448727e+003,9.680659e+001
3.449209e+003,9.683265e+001
3.449691e+003,9.685738e+001
3.450173e+003,9.688110e+001
3.450655e+003,9.690421e+001
3.451137e+003,9.692703e+001
3.451619e+003,9.694985e+001
3.452102e+003,9.697285e+001
3.452584e+003,9.699602e+001
3.453066e+003,9.701918e+001
3.453548e+003,9.704214e+001
3.454030e+003,9.706438e+001
3.454512e+003,9.708549e+001
3.454994e+003,9.710513e+001
3.455477e+003,9.712326e+001
3.455959e+003,9.714011e+001
3.456441e+003,9.715614e+001
3.456923e+003,9.717190e+001
3.457405e+003,9.718785e+001
3.457887e+003,9.720427e+001
3.458369e+003,9.722131e+001
3.458852e+003,9.723901e+001
3.459333e+003,9.725758e+001
3.459816e+003,9.727711e+001
3.460298e+003,9.729787e+001
3.460780e+003,9.731987e+001
3.461262e+003,9.734285e+001
3.461744e+003,9.736626e+001
3.462227e+003,9.738945e+001
3.462708e+003,9.741185e+001
3.463191e+003,9.743332e+001
3.463673e+003,9.745400e+001
3.464155e+003,9.747440e+001
3.464637e+003,9.749479e+001
3.465119e+003,9.751512e+001
3.465601e+003,9.753479e+001
3.466083e+003,9.755288e+001
3.466566e+003,9.756856e+001
3.467048e+003,9.758163e+001
3.467530e+003,9.759267e+001
3.468012e+003,9.760313e+001
3.468494e+003,9.761460e+001
3.468976e+003,9.762842e+001
3.469458e+003,9.764494e+001
3.469941e+003,9.766362e+001
3.470423e+003,9.768313e+001
3.470905e+003,9.770207e+001
3.471387e+003,9.771957e+001
3.471869e+003,9.773563e+001
3.472351e+003,9.775115e+001
3.472833e+003,9.776734e+001
3.473316e+003,9.778511e+001
3.473798e+003,9.780466e+001
3.474280e+003,9.782525e+001
3.474762e+003,9.784563e+001
3.475244e+003,9.786445e+001
3.475726e+003,9.788090e+001
3.476208e+003,9.789481e+001
3.476690e+003,9.790680e+001
3.477173e+003,9.791765e+001
3.477655e+003,9.792825e+001
3.478137e+003,9.793908e+001
3.478619e+003,9.795038e+001
3.479101e+003,9.796217e+001
3.479583e+003,9.797474e+001
3.480065e+003,9.798830e+001
3.480548e+003,9.800325e+001
3.481030e+003,9.801976e+001
3.481512e+003,9.803760e+001
3.481994e+003,9.805604e+001
3.482476e+003,9.807409e+001
3.482958e+003,9.809084e+001
3.483440e+003,9.810569e+001
3.483923e+003,9.811861e+001
3.484405e+003,9.813002e+001
3.484887e+003,9.814053e+001
3.485369e+003,9.815073e+001
3.485851e+003,9.816090e+001
3.486333e+003,9.817117e+001
3.486815e+003,9.818153e+001
3.487298e+003,9.819204e+001
3.487780e+003,9.820293e+001
3.488262e+003,9.821461e+001
3.488744e+003,9.822719e+001
3.489226e+003,9.824070e+001
3.489708e+003,9.825461e+001
3.490190e+003,9.826836e+001
3.490673e+003,9.828127e+001
3.491155e+003,9.829308e+001
3.491637e+003,9.830382e+001
3.492119e+003,9.831397e+001
3.492601e+003,9.832402e+001
3.493083e+003,9.833430e+001
3.493565e+003,9.834470e+001
3.494047e+003,9.835480e+001
3.494530e+003,9.836413e+001
3.495012e+003,9.837236e+001
3.495494e+003,9.837975e+001
3.495976e+003,9.838689e+001
3.496458e+003,9.839465e+001
3.496940e+003,9.840382e+001
3.497422e+003,9.841463e+001
3.497905e+003,9.842680e+001
3.498387e+003,9.843937e+001
3.498869e+003,9.845121e+001
3.499351e+003,9.846131e+001
3.499833e+003,9.846915e+001
3.500315e+003,9.847473e+001
3.500797e+003,9.847879e+001
3.501280e+003,9.848243e+001
3.501762e+003,9.848691e+001
3.502244e+003,9.849321e+001
3.502726e+003,9.850193e+001
3.503208e+003,9.851298e+001
3.503690e+003,9.852568e+001
3.504172e+003,9.853893e+001
3.504655e+003,9.855132e+001
3.505137e+003,9.856174e+001
3.505619e+003,9.856956e+001
3.506101e+003,9.857493e+001
3.506583e+003,9.857872e+001
3.507065e+003,9.858237e+001
3.507547e+003,9.858741e+001
3.508030e+003,9.859499e+001
3.508512e+003,9.860561e+001
3.508994e+003,9.861878e+001
3.509476e+003,9.863348e+001
3.509958e+003,9.864831e+001
3.510440e+003,9.866214e+001
3.510922e+003,9.867424e+001
3.511404e+003,9.868460e+001
3.511886e+003,9.869356e+001
3.512369e+003,9.870168e+001
3.512851e+003,9.870929e+001
3.513333e+003,9.871656e+001
3.513815e+003,9.872326e+001
3.514297e+003,9.872911e+001
3.514779e+003,9.873393e+001
3.515261e+003,9.873784e+001
3.515744e+003,9.874131e+001
3.516226e+003,9.874504e+001
3.516708e+003,9.874980e+001
3.517190e+003,9.875624e+001
3.517672e+003,9.876456e+001
3.518154e+003,9.877463e+001
3.518636e+003,9.878569e+001
3.519119e+003,9.879686e+001
3.519601e+003,9.880704e+001
3.520083e+003,9.881541e+001
3.520565e+003,9.882151e+001
3.521047e+003,9.882560e+001
3.521529e+003,9.882844e+001
3.522011e+003,9.883131e+001
3.522494e+003,9.883549e+001
3.522976e+003,9.884193e+001
3.523458e+003,9.885097e+001
3.523940e+003,9.886205e+001
3.524422e+003,9.887405e+001
3.524904e+003,9.888567e+001
3.525386e+003,9.889584e+001
3.525869e+003,9.890414e+001
3.526351e+003,9.891093e+001
3.526833e+003,9.891732e+001
3.527315e+003,9.892455e+001
3.527797e+003,9.893381e+001
3.528279e+003,9.894559e+001
3.528761e+003,9.895974e+001
3.529243e+003,9.897540e+001
3.529726e+003,9.899138e+001
3.530208e+003,9.900645e+001
3.530690e+003,9.901968e+001
3.531172e+003,9.903056e+001
3.531654e+003,9.903907e+001
3.532136e+003,9.904552e+001
3.532618e+003,9.905049e+001
3.533101e+003,9.905463e+001
3.533583e+003,9.905853e+001
3.534065e+003,9.906271e+001
3.534547e+003,9.906754e+001
3.535029e+003,9.907323e+001
3.535511e+003,9.907990e+001
3.535993e+003,9.908749e+001
3.536476e+003,9.909595e+001
3.536958e+003,9.910505e+001
3.537440e+003,9.911456e+001
3.537922e+003,9.912411e+001
3.538404e+003,9.913329e+001
3.538886e+003,9.914162e+001
