3.301675e+003,9.094942e+001
3.302157e+003,9.095605e+001
3.302639e+003,9.096285e+001
3.303121e+003,9.096983e+001
3.303603e+003,9.097719e+001
3.304085e+003,9.098523e+001
3.304568e+003,9.099416e+001
3.305050e+003,9.100388e+001
3.305532e+003,9.101424e+001
3.306014e+003,9.102493e+001
3.306496e+003,9.103584e+001
3.306978e+003,9.104696e+001
3.307460e+003,9.105851e+001
3.307943e+003,9.107076e+001
3.308425e+003,9.108382e+001
3.308907e+003,9.109760e+001
3.309389e+003,9.111192e+001
3.309871e+003,9.112646e+001
3.310353e+003,9.114101e+001
3.310835e+003,9.115557e+001
3.311318e+003,9.117030e+001
3.311800e+003,9.118548e+001
3.312282e+003,9.120140e+001
3.312764e+003,9.121825e+001
3.313246e+003,9.123618e+001
3.313728e+003,9.125522e+001
3.314210e+003,9.127547e+001
3.314692e+003,9.129699e+001
3.315175e+003,9.131974e+001
3.315657e+003,9.134354e+001
3.316139e+003,9.136795e+001
3.316621e+003,9.139245e+001
3.317103e+003,9.141640e+001
3.317585e+003,9.143942e+001
3.318067e+003,9.146139e+001
3.318550e+003,9.148262e+001
3.319032e+003,9.150375e+001
3.319514e+003,9.152544e+001
3.319996e+003,9.154815e+001
3.320478e+003,9.157198e+001
3.320960e+003,9.159662e+001
3.321442e+003,9.162141e+001
3.321925e+003,9.164557e+001
3.322407e+003,9.166840e+001
3.322889e+003,9.168951e+001
3.323371e+003,9.170885e+001
3.323853e+003,9.172674e+001
3.324335e+003,9.174371e+001
3.324817e+003,9.176041e+001
3.325300e+003,9.177741e+001
3.325782e+003,9.179512e+001
3.326264e+003,9.181369e+001
3.326746e+003,9.183302e+001
3.327228e+003,9.185283e+001
3.327710e+003,9.187267e+001
3.328192e+003,9.189220e+001
3.328675e+003,9.191119e+001
3.329157e+003,9.192950e+001
3.329639e+003,9.194721e+001
3.330121e+003,9.196432e+001
3.330603e+003,9.198083e+001
3.331085e+003,9.199651e+001
3.331567e+003,9.201105e+001
3.332049e+003,9.202415e+001
3.332531e+003,9.203568e+001
3.333014e+003,9.204576e+001
3.333496e+003,9.205482e+001
3.333978e+003,9.206345e+001
3.334460e+003,9.207225e+001
3.334942e+003,9.208160e+001
3.335424e+003,9.209163e+001
3.335906e+003,9.210220e+001
3.336389e+003,9.211307e+001
3.336871e+003,9.212399e+001
3.337353e+003,9.213483e+001
3.337835e+003,9.214560e+001
3.338317e+003,9.215643e+001
3.338799e+003,9.216737e+001
3.339281e+003,9.217841e+001
3.339764e+003,9.218938e+001
3.340246e+003,9.220007e+001
3.340728e+003,9.221033e+001
3.341210e+003,9.221999e+001
3.341692e+003,9.222903e+001
3.342174e+003,9.223749e+001
3.342656e+003,9.224545e+001
3.343139e+003,9.225304e+001
3.343621e+003,9.226040e+001
3.344103e+003,9.226782e+001
3.344585e+003,9.227570e+001
3.345067e+003,9.228445e+001
3.345549e+003,9.229446e+001
3.346031e+003,9.230591e+001
3.346514e+003,9.231863e+001
3.346996e+003,9.233243e+001
3.347478e+003,9.234679e+001
3.347960e+003,9.236136e+001
3.348442e+003,9.237595e+001
3.348924e+003,9.239052e+001
3.349406e+003,9.240516e+001
3.349888e+003,9.241990e+001
3.350371e+003,9.243453e+001
3.350853e+003,9.244869e+001
3.351335e+003,9.246194e+001
3.351817e+003,9.247400e+001
3.352299e+003,9.248494e+001
3.352781e+003,9.249522e+001
3.353263e+003,9.250567e+001
3.353746e+003,9.251724e+001
3.354228e+003,9.253059e+001
3.354710e+003,9.254600e+001
3.355192e+003,9.256318e+001
3.355674e+003,9.258157e+001
3.356156e+003,9.260041e+001
3.356638e+003,9.261906e+001
3.357121e+003,9.263721e+001
3.357603e+003,9.265479e+001
3.358085e+003,9.267200e+001
3.358567e+003,9.268914e+001
3.359049e+003,9.270636e+001
3.359531e+003,9.272375e+001
3.360013e+003,9.274125e+001
3.360496e+003,9.275860e+001
3.360978e+003,9.277557e+001
3.361460e+003,9.279184e+001
3.361942e+003,9.280714e+001
3.362424e+003,9.282127e+001
3.362906e+003,9.283416e+001
3.363388e+003,9.284607e+001
3.363871e+003,9.285735e+001
3.364353e+003,9.286862e+001
3.364835e+003,9.288042e+001
3.365317e+003,9.289317e+001
3.365799e+003,9.290694e+001
3.366281e+003,9.292133e+001
3.366763e+003,9.293568e+001
3.367245e+003,9.294912e+001
3.367728e+003,9.296082e+001
3.368210e+003,9.297023e+001
3.368692e+003,9.297710e+001
3.369174e+003,9.298159e+001
3.369656e+003,9.298413e+001
3.370138e+003,9.298533e+001
3.370620e+003,9.298589e+001
3.371103e+003,9.298645e+001
3.371585e+003,9.298753e+001
3.372067e+003,9.298947e+001
3.372549e+003,9.299224e+001
3.373031e+003,9.299561e+001
3.373513e+003,9.299896e+001
3.373995e+003,9.300162e+001
3.374478e+003,9.300291e+001
3.374960e+003,9.300233e+001
3.375442e+003,9.299976e+001
3.375924e+003,9.299530e+001
3.376406e+003,9.298923e+001
3.376888e+003,9.298192e+001
3.377370e+003,9.297342e+001
3.377853e+003,9.296364e+001
3.378334e+003,9.295225e+001
3.378817e+003,9.293882e+001
3.379299e+003,9.292314e+001
3.379781e+003,9.290528e+001
3.380263e+003,9.288570e+001
3.380745e+003,9.286521e+001
3.381228e+003,9.284492e+001
3.381709e+003,9.282587e+001
3.382192e+003,9.280907e+001
3.382674e+003,9.279504e+001
3.383156e+003,9.278391e+001
3.383638e+003,9.277525e+001
3.384120e+003,9.276806e+001
3.384602e+003,9.276105e+001
3.385084e+003,9.275290e+001
3.385567e+003,9.274250e+001
3.386049e+003,9.272932e+001
3.386531e+003,9.271348e+001
3.387013e+003,9.269571e+001
3.387495e+003,9.267714e+001
3.387977e+003,9.265897e+001
3.388459e+003,9.264222e+001
3.388942e+003,9.262751e+001
3.389424e+003,9.261514e+001
3.389906e+003,9.260513e+001
3.390388e+003,9.259732e+001
3.390870e+003,9.259167e+001
3.391352e+003,9.258793e+001
3.391834e+003,9.258567e+001
3.392317e+003,9.258427e+001
3.392799e+003,9.258276e+001
3.393281e+003,9.258020e+001
3.393763e+003,9.257585e+001
3.394245e+003,9.256952e+001
3.394727e+003,9.256165e+001
3.395209e+003,9.255309e+001
3.395691e+003,9.254489e+001
3.396174e+003,9.253791e+001
3.396656e+003,9.253237e+001
3.397138e+003,9.252795e+001
3.397620e+003,9.252390e+001
3.398102e+003,9.251920e+001
3.398584e+003,9.251321e+001
3.399066e+003,9.250552e+001
3.399549e+003,9.249623e+001
3.400031e+003,9.248577e+001
3.400513e+003,9.247463e+001
3.400995e+003,9.246342e+001
3.401477e+003,9.245269e+001
3.401959e+003,9.244298e+001
3.402441e+003,9.243483e+001
3.402924e+003,9.242874e+001
3.403406e+003,9.242500e+001
3.403888e+003,9.242362e+001
3.404370e+003,9.242440e+001
3.404852e+003,9.242689e+001
3.405334e+003,9.243078e+001
3.405816e+003,9.243618e+001
3.406299e+003,9.244362e+001
3.406781e+003,9.245406e+001
3.407263e+003,9.246861e+001
3.407745e+003,9.248816e+001
3.408227e+003,9.251313e+001
3.408709e+003,9.254337e+001
3.409191e+003,9.257829e+001
3.409674e+003,9.261710e+001
3.410156e+003,9.265911e+001
3.410638e+003,9.270389e+001
3.411120e+003,9.275111e+001
3.411602e+003,9.280058e+001
3.412084e+003,9.285197e+001
3.412566e+003,9.290482e+001
3.413048e+003,9.295847e+001
3.413531e+003,9.301231e+001
3.414013e+003,9.306580e+001
3.414495e+003,9.311858e+001
3.414977e+003,9.317046e+001
3.415459e+003,9.322124e+001
3.415941e+003,9.327081e+001
3.416423e+003,9.331909e+001
3.416906e+003,9.336618e+001
3.417388e+003,9.341247e+001
3.417870e+003,9.345856e+001
3.418352e+003,9.350529e+001
3.418834e+003,9.355320e+001
3.419316e+003,9.360267e+001
3.419798e+003,9.365350e+001
3.420281e+003,9.370509e+001
3.420763e+003,9.375666e+001
3.421245e+003,9.380766e+001
3.421727e+003,9.385770e+001
3.422209e+003,9.390679e+001
3.422691e+003,9.395518e+001
3.423173e+003,9.400298e+001
3.423656e+003,9.405026e+001
3.424138e+003,9.409674e+001
3.424620e+003,9.414220e+001
3.425102e+003,9.418658e+001
3.425584e+003,9.423016e+001
3.426066e+003,9.427345e+001
3.426548e+003,9.431718e+001
3.427031e+003,9.436184e+001
3.427513e+003,9.440762e+001
3.427995e+003,9.445420e+001
3.428477e+003,9.450095e+001
3.428959e+003,9.454720e+001
3.429441e+003,9.459235e+001
3.429923e+003,9.463622e+001
3.430405e+003,9.467886e+001
3.430887e+003,9.472051e+001
3.431370e+003,9.476153e+001
3.431852e+003,9.480218e+001
3.432334e+003,9.484269e+001
3.432816e+003,9.488320e+001
3.433298e+003,9.492381e+001
3.433780e+003,9.496451e+001
3.434262e+003,9.500511e+001
3.434745e+003,9.504535e+001
3.435227e+003,9.508485e+001
3.435709e+003,9.512331e+001
3.436191e+003,9.516055e+001
3.436673e+003,9.519669e+001
3.437155e+003,9.523193e+001
3.437637e+003,9.526640e+001
3.438120e+003,9.529993e+001
3.438602e+003,9.533202e+001
3.439084e+003,9.536193e+001
3.439566e+003,9.538911e+001
3.440048e+003,9.541365e+001
3.440530e+003,9.543625e+001
3.441012e+003,9.545840e+001
3.441495e+003,9.548160e+001
3.441977e+003,9.550684e+001
3.442459e+003,9.553403e+001
3.442941e+003,9.556190e+001
3.443423e+003,9.558846e+001
3.443905e+003,9.561176e+001
3.444387e+003,9.563092e+001
3.444870e+003,9.564651e+001
3.445352e+003,9.566061e+001
3.445834e+003,9.567619e+001
3.446316e+003,9.569599e+001
3.446798e+003,9.572160e+001
3.447280e+003,9.575303e+001
3.447762e+003,9.578864e+001
3.448244e+003,9.582601e+001
3.448727e+003,9.586256e+001
3.449209e+003,9.589659e+001
3.449691e+003,9.592725e+001
3.450173e+003,9.595473e+001
3.450655e+003,9.597964e+001
3.451137e+003,9.600269e+001
3.451619e+003,9.602428e+001
3.452102e+003,9.604475e+001
3.452584e+003,9.606410e+001
3.453066e+003,9.608248e+001
3.453548e+003,9.610008e+001
3.454030e+003,9.611716e+001
3.454512e+003,9.613387e+001
3.454994e+003,9.615022e+001
3.455477e+003,9.616615e+001
3.455959e+003,9.618151e+001
3.456441e+003,9.619632e+001
3.456923e+003,9.621064e+001
3.457405e+003,9.622472e+001
3.457887e+003,9.623866e+001
3.458369e+003,9.625247e+001
3.458852e+003,9.626598e+001
3.459333e+003,9.627909e+001
3.459816e+003,9.629189e+001
3.460298e+003,9.630493e+001
3.460780e+003,9.631903e+001
3.461262e+003,9.633525e+001
3.461744e+003,9.635429e+001
3.462227e+003,9.637635e+001
3.462708e+003,9.640081e+001
3.463191e+003,9.642636e+001
3.463673e+003,9.645145e+001
3.464155e+003,9.647454e+001
3.464637e+003,9.649454e+001
3.465119e+003,9.651094e+001
3.465601e+003,9.652390e+001
3.466083e+003,9.653409e+001
3.466566e+003,9.654253e+001
3.467048e+003,9.655048e+001
3.467530e+003,9.655935e+001
3.468012e+003,9.657039e+001
3.468494e+003,9.658445e+001
3.468976e+003,9.660174e+001
3.469458e+003,9.662165e+001
3.469941e+003,9.664271e+001
3.470423e+003,9.666310e+001
3.470905e+003,9.668109e+001
3.471387e+003,9.669558e+001
3.471869e+003,9.670659e+001
3.472351e+003,9.671523e+001
3.472833e+003,9.672330e+001
3.473316e+003,9.673250e+001
3.473798e+003,9.674402e+001
3.474280e+003,9.675807e+001
3.474762e+003,9.677395e+001
3.475244e+003,9.679048e+001
3.475726e+003,9.680655e+001
3.476208e+003,9.682138e+001
3.476690e+003,9.683482e+001
3.477173e+003,9.684706e+001
3.477655e+003,9.685836e+001
3.478137e+003,9.686897e+001
3.478619e+003,9.687895e+001
3.479101e+003,9.688839e+001
3.479583e+003,9.689774e+001
3.480065e+003,9.690774e+001
3.480548e+003,9.691929e+001
3.481030e+003,9.693327e+001
3.481512e+003,9.694986e+001
3.481994e+003,9.696852e+001
3.482476e+003,9.698780e+001
3.482958e+003,9.700608e+001
3.483440e+003,9.702180e+001
3.483923e+003,9.703409e+001
3.484405e+003,9.704301e+001
3.484887e+003,9.704932e+001
3.485369e+003,9.705425e+001
3.485851e+003,9.705892e+001
3.486333e+003,9.706417e+001
3.486815e+003,9.707042e+001
3.487298e+003,9.707780e+001
3.487780e+003,9.708644e+001
3.488262e+003,9.709654e+001
3.488744e+003,9.710833e+001
3.489226e+003,9.712199e+001
3.489708e+003,9.713737e+001
3.490190e+003,9.715392e+001
3.490673e+003,9.717068e+001
3.491155e+003,9.718649e+001
3.491637e+003,9.720030e+001
3.492119e+003,9.721142e+001
3.492601e+003,9.721975e+001
3.493083e+003,9.722564e+001
3.493565e+003,9.722989e+001
3.494047e+003,9.723333e+001
3.494530e+003,9.723680e+001
3.495012e+003,9.724081e+001
3.495494e+003,9.724556e+001
3.495976e+003,9.725093e+001
3.496458e+003,9.725654e+001
3.496940e+003,9.726198e+001
3.497422e+003,9.726675e+001
3.497905e+003,9.727067e+001
3.498387e+003,9.727350e+001
3.498869e+003,9.727533e+001
3.499351e+003,9.727631e+001
3.499833e+003,9.727652e+001
3.500315e+003,9.727618e+001
3.500797e+003,9.727557e+001
3.501280e+003,9.727528e+001
3.501762e+003,9.727619e+001
3.502244e+003,9.727945e+001
3.502726e+003,9.728613e+001
3.503208e+003,9.729676e+001
3.503690e+003,9.731114e+001
3.504172e+003,9.732776e+001
3.504655e+003,9.734435e+001
3.505137e+003,9.735836e+001
3.505619e+003,9.736770e+001
3.506101e+003,9.737166e+001
3.506583e+003,9.737106e+001
3.507065e+003,9.736828e+001
3.507547e+003,9.736637e+001
3.508030e+003,9.736819e+001
3.508512e+003,9.737545e+001
3.508994e+003,9.738819e+001
3.509476e+003,9.740495e+001
3.509958e+003,9.742335e+001
3.510440e+003,9.744106e+001
3.510922e+003,9.745640e+001
3.511404e+003,9.746882e+001
3.511886e+003,9.747863e+001
3.512369e+003,9.748664e+001
3.512851e+003,9.749356e+001
3.513333e+003,9.749973e+001
3.513815e+003,9.750505e+001
3.514297e+003,9.750929e+001
3.514779e+003,9.751238e+001
3.515261e+003,9.751462e+001
3.515744e+003,9.751678e+001
3.516226e+003,9.751975e+001
3.516708e+003,9.752428e+001
3.517190e+003,9.753061e+001
3.517672e+003,9.753815e+001
3.518154e+003,9.754573e+001
3.518636e+003,9.755173e+001
3.519119e+003,9.755467e+001
3.519601e+003,9.755357e+001
3.520083e+003,9.754836e+001
3.520565e+003,9.753989e+001
3.521047e+003,9.753012e+001
3.521529e+003,9.752130e+001
3.522011e+003,9.751577e+001
3.522494e+003,9.751510e+001
3.522976e+003,9.751965e+001
3.523458e+003,9.752853e+001
3.523940e+003,9.753968e+001
3.524422e+003,9.755069e+001
3.524904e+003,9.755945e+001
3.525386e+003,9.756494e+001
3.525869e+003,9.756744e+001
3.526351e+003,9.756842e+001
3.526833e+003,9.756998e+001
3.527315e+003,9.757420e+001
3.527797e+003,9.758247e+001
3.528279e+003,9.759525e+001
3.528761e+003,9.761207e+001
3.529243e+003,9.763196e+001
3.529726e+003,9.765368e+001
3.530208e+003,9.767594e+001
3.530690e+003,9.769746e+001
3.531172e+003,9.771691e+001
3.531654e+003,9.773282e+001
3.532136e+003,9.774397e+001
3.532618e+003,9.774958e+001
3.533101e+003,9.774983e+001
3.533583e+003,9.774586e+001
3.534065e+003,9.773984e+001
3.534547e+003,9.773429e+001
3.535029e+003,9.773148e+001
3.535511e+003,9.773271e+001
3.535993e+003,9.773820e+001
3.536476e+003,9.774698e+001
3.536958e+003,9.775759e+001
3.537440e+003,9.776852e+001
3.537922e+003,9.777876e+001
3.538404e+003,9.778773e+001
3.538886e+003,9.779517e+001
