3.301675e+003,9.065131e+001
3.302157e+003,9.066016e+001
3.302639e+003,9.066992e+001
3.303121e+003,9.068015e+001
3.303603e+003,9.069049e+001
3.304085e+003,9.070074e+001
3.304568e+003,9.071081e+001
3.305050e+003,9.072078e+001
3.305532e+003,9.073087e+001
3.306014e+003,9.074137e+001
3.306496e+003,9.075259e+001
3.306978e+003,9.076469e+001
3.307460e+003,9.077774e+001
3.307943e+003,9.079163e+001
3.308425e+003,9.080614e+001
3.308907e+003,9.082113e+001
3.309389e+003,9.083656e+001
3.309871e+003,9.085258e+001
3.310353e+003,9.086951e+001
3.310835e+003,9.088766e+001
3.311318e+003,9.090717e+001
3.311800e+003,9.092796e+001
3.312282e+003,9.094968e+001
3.312764e+003,9.097182e+001
3.313246e+003,9.099403e+001
3.313728e+003,9.101604e+001
3.314210e+003,9.103796e+001
3.314692e+003,9.106023e+001
3.315175e+003,9.108320e+001
3.315657e+003,9.110715e+001
3.316139e+003,9.113221e+001
3.316621e+003,9.115806e+001
3.317103e+003,9.118425e+001
3.317585e+003,9.121030e+001
3.318067e+003,9.123589e+001
3.318550e+003,9.126098e+001
3.319032e+003,9.128580e+001
3.319514e+003,9.131071e+001
3.319996e+003,9.133620e+001
3.320478e+003,9.136246e+001
3.320960e+003,9.138954e+001
3.321442e+003,9.141708e+001
3.321925e+003,9.144448e+001
3.322407e+003,9.147102e+001
3.322889e+003,9.149596e+001
3.323371e+003,9.151884e+001
3.323853e+003,9.153956e+001
3.324335e+003,9.155846e+001
3.324817e+003,9.157627e+001
3.325300e+003,9.159386e+001
3.325782e+003,9.161195e+001
3.326264e+003,9.163104e+001
3.326746e+003,9.165113e+001
3.327228e+003,9.167184e+001
3.327710e+003,9.169271e+001
3.328192e+003,9.171326e+001
3.328675e+003,9.173338e+001
3.329157e+003,9.175316e+001
3.329639e+003,9.177294e+001
3.330121e+003,9.179295e+001
3.330603e+003,9.181313e+001
3.331085e+003,9.183305e+001
3.331567e+003,9.185192e+001
3.332049e+003,9.186894e+001
3.332531e+003,9.188348e+001
3.333014e+003,9.189542e+001
3.333496e+003,9.190509e+001
3.333978e+003,9.191319e+001
3.334460e+003,9.192059e+001
3.334942e+003,9.192806e+001
3.335424e+003,9.193607e+001
3.335906e+003,9.194481e+001
3.336389e+003,9.195433e+001
3.336871e+003,9.196453e+001
3.337353e+003,9.197531e+001
3.337835e+003,9.198656e+001
3.338317e+003,9.199803e+001
3.338799e+003,9.200951e+001
3.339281e+003,9.202059e+001
3.339764e+003,9.203097e+001
3.340246e+003,9.204041e+001
3.340728e+003,9.204894e+001
3.341210e+003,9.205679e+001
3.341692e+003,9.206425e+001
3.342174e+003,9.207162e+001
3.342656e+003,9.207904e+001
3.343139e+003,9.208652e+001
3.343621e+003,9.209409e+001
3.344103e+003,9.210179e+001
3.344585e+003,9.210992e+001
3.345067e+003,9.211904e+001
3.345549e+003,9.212970e+001
3.346031e+003,9.214237e+001
3.346514e+003,9.215730e+001
3.346996e+003,9.217429e+001
3.347478e+003,9.219281e+001
3.347960e+003,9.221210e+001
3.348442e+003,9.223135e+001
3.348924e+003,9.224978e+001
3.349406e+003,9.226681e+001
3.349888e+003,9.228207e+001
3.350371e+003,9.229539e+001
3.350853e+003,9.230689e+001
3.351335e+003,9.231701e+001
3.351817e+003,9.232636e+001
3.352299e+003,9.233583e+001
3.352781e+003,9.234626e+001
3.353263e+003,9.235840e+001
3.353746e+003,9.237262e+001
3.354228e+003,9.238897e+001
3.354710e+003,9.240710e+001
3.355192e+003,9.242660e+001
3.355674e+003,9.244705e+001
3.356156e+003,9.246820e+001
3.356638e+003,9.248993e+001
3.357121e+003,9.251218e+001
3.357603e+003,9.253478e+001
3.358085e+003,9.255736e+001
3.358567e+003,9.257951e+001
3.359049e+003,9.260087e+001
3.359531e+003,9.262128e+001
3.360013e+003,9.264105e+001
3.360496e+003,9.266063e+001
3.360978e+003,9.268062e+001
3.361460e+003,9.270137e+001
3.361942e+003,9.272279e+001
3.362424e+003,9.274440e+001
3.362906e+003,9.276541e+001
3.363388e+003,9.278512e+001
3.363871e+003,9.280309e+001
3.364353e+003,9.281937e+001
3.364835e+003,9.283440e+001
3.365317e+003,9.284876e+001
3.365799e+003,9.286296e+001
3.366281e+003,9.287718e+001
3.366763e+003,9.289124e+001
3.367245e+003,9.290474e+001
3.367728e+003,9.291729e+001
3.368210e+003,9.292862e+001
3.368692e+003,9.293871e+001
3.369174e+003,9.294759e+001
3.369656e+003,9.295539e+001
3.370138e+003,9.296214e+001
3.370620e+003,9.296770e+001
3.371103e+003,9.297187e+001
3.371585e+003,9.297454e+001
3.372067e+003,9.297562e+001
3.372549e+003,9.297519e+001
3.373031e+003,9.297342e+001
3.373513e+003,9.297045e+001
3.373995e+003,9.296640e+001
3.374478e+003,9.296131e+001
3.374960e+003,9.295522e+001
3.375442e+003,9.294824e+001
3.375924e+003,9.294056e+001
3.376406e+003,9.293236e+001
3.376888e+003,9.292366e+001
3.377370e+003,9.291435e+001
3.377853e+003,9.290402e+001
3.378334e+003,9.289217e+001
3.378817e+003,9.287826e+001
3.379299e+003,9.286208e+001
3.379781e+003,9.284381e+001
3.380263e+003,9.282402e+001
3.380745e+003,9.280359e+001
3.381228e+003,9.278349e+001
3.381709e+003,9.276439e+001
3.382192e+003,9.274665e+001
3.382674e+003,9.273016e+001
3.383156e+003,9.271447e+001
3.383638e+003,9.269890e+001
3.384120e+003,9.268287e+001
3.384602e+003,9.266599e+001
3.385084e+003,9.264811e+001
3.385567e+003,9.262949e+001
3.386049e+003,9.261048e+001
3.386531e+003,9.259158e+001
3.387013e+003,9.257315e+001
3.387495e+003,9.255540e+001
3.387977e+003,9.253834e+001
3.388459e+003,9.252188e+001
3.388942e+003,9.250600e+001
3.389424e+003,9.249088e+001
3.389906e+003,9.247693e+001
3.390388e+003,9.246474e+001
3.390870e+003,9.245490e+001
3.391352e+003,9.244775e+001
3.391834e+003,9.244315e+001
3.392317e+003,9.244044e+001
3.392799e+003,9.243860e+001
3.393281e+003,9.243650e+001
3.393763e+003,9.243329e+001
3.394245e+003,9.242869e+001
3.394727e+003,9.242285e+001
3.395209e+003,9.241632e+001
3.395691e+003,9.240965e+001
3.396174e+003,9.240308e+001
3.396656e+003,9.239645e+001
3.397138e+003,9.238927e+001
3.397620e+003,9.238094e+001
3.398102e+003,9.237103e+001
3.398584e+003,9.235948e+001
3.399066e+003,9.234657e+001
3.399549e+003,9.233276e+001
3.400031e+003,9.231857e+001
3.400513e+003,9.230430e+001
3.400995e+003,9.229028e+001
3.401477e+003,9.227679e+001
3.401959e+003,9.226431e+001
3.402441e+003,9.225356e+001
3.402924e+003,9.224523e+001
3.403406e+003,9.223994e+001
3.403888e+003,9.223775e+001
3.404370e+003,9.223834e+001
3.404852e+003,9.224099e+001
3.405334e+003,9.224504e+001
3.405816e+003,9.225036e+001
3.406299e+003,9.225764e+001
3.406781e+003,9.226828e+001
3.407263e+003,9.228416e+001
3.407745e+003,9.230694e+001
3.408227e+003,9.233765e+001
3.408709e+003,9.237623e+001
3.409191e+003,9.242159e+001
3.409674e+003,9.247198e+001
3.410156e+003,9.252547e+001
3.410638e+003,9.258048e+001
3.411120e+003,9.263613e+001
3.411602e+003,9.269226e+001
3.412084e+003,9.274939e+001
3.412566e+003,9.280835e+001
3.413048e+003,9.286992e+001
3.413531e+003,9.293467e+001
3.414013e+003,9.300256e+001
3.414495e+003,9.307313e+001
3.414977e+003,9.314533e+001
3.415459e+003,9.321781e+001
3.415941e+003,9.328922e+001
3.416423e+003,9.335844e+001
3.416906e+003,9.342480e+001
3.417388e+003,9.348838e+001
3.417870e+003,9.354961e+001
3.418352e+003,9.360932e+001
3.418834e+003,9.366818e+001
3.419316e+003,9.372671e+001
3.419798e+003,9.378495e+001
3.420281e+003,9.384274e+001
3.420763e+003,9.389983e+001
3.421245e+003,9.395615e+001
3.421727e+003,9.401189e+001
3.422209e+003,9.406730e+001
3.422691e+003,9.412276e+001
3.423173e+003,9.417821e+001
3.423656e+003,9.423341e+001
3.424138e+003,9.428777e+001
3.424620e+003,9.434071e+001
3.425102e+003,9.439190e+001
3.425584e+003,9.444134e+001
3.426066e+003,9.448946e+001
3.426548e+003,9.453704e+001
3.427031e+003,9.458476e+001
3.427513e+003,9.463329e+001
3.427995e+003,9.468292e+001
3.428477e+003,9.473371e+001
3.428959e+003,9.478560e+001
3.429441e+003,9.483832e+001
3.429923e+003,9.489156e+001
3.430405e+003,9.494496e+001
3.430887e+003,9.499799e+001
3.431370e+003,9.505017e+001
3.431852e+003,9.510109e+001
3.432334e+003,9.515052e+001
3.432816e+003,9.519852e+001
3.433298e+003,9.524534e+001
3.433780e+003,9.529123e+001
3.434262e+003,9.533633e+001
3.434745e+003,9.538047e+001
3.435227e+003,9.542333e+001
3.435709e+003,9.546459e+001
3.436191e+003,9.550418e+001
3.436673e+003,9.554240e+001
3.437155e+003,9.557980e+001
3.437637e+003,9.561707e+001
3.438120e+003,9.565453e+001
3.438602e+003,9.569202e+001
3.439084e+003,9.572884e+001
3.439566e+003,9.576414e+001
3.440048e+003,9.579726e+001
3.440530e+003,9.582804e+001
3.441012e+003,9.585722e+001
3.441495e+003,9.588592e+001
3.441977e+003,9.591538e+001
3.442459e+003,9.594632e+001
3.442941e+003,9.597878e+001
3.443423e+003,9.601199e+001
3.443905e+003,9.604478e+001
3.444387e+003,9.607613e+001
3.444870e+003,9.610551e+001
3.445352e+003,9.613319e+001
3.445834e+003,9.615997e+001
3.446316e+003,9.618692e+001
3.446798e+003,9.621473e+001
3.447280e+003,9.624381e+001
3.447762e+003,9.627388e+001
3.448244e+003,9.630442e+001
3.448727e+003,9.633483e+001
3.449209e+003,9.636472e+001
3.449691e+003,9.639398e+001
3.450173e+003,9.642273e+001
3.450655e+003,9.645111e+001
3.451137e+003,9.647931e+001
3.451619e+003,9.650726e+001
3.452102e+003,9.653497e+001
3.452584e+003,9.656224e+001
3.453066e+003,9.658898e+001
3.453548e+003,9.661513e+001
3.454030e+003,9.664063e+001
3.454512e+003,9.666547e+001
3.454994e+003,9.668969e+001
3.455477e+003,9.671352e+001
3.455959e+003,9.673722e+001
3.456441e+003,9.676112e+001
3.456923e+003,9.678545e+001
3.457405e+003,9.681013e+001
3.457887e+003,9.683474e+001
3.458369e+003,9.685858e+001
3.458852e+003,9.688093e+001
3.459333e+003,9.690130e+001
3.459816e+003,9.691973e+001
3.460298e+003,9.693693e+001
3.460780e+003,9.695405e+001
3.461262e+003,9.697240e+001
3.461744e+003,9.699303e+001
3.462227e+003,9.701647e+001
3.462708e+003,9.704259e+001
3.463191e+003,9.707061e+001
3.463673e+003,9.709954e+001
3.464155e+003,9.712820e+001
3.464637e+003,9.715557e+001
3.465119e+003,9.718088e+001
3.465601e+003,9.720367e+001
3.466083e+003,9.722384e+001
3.466566e+003,9.724174e+001
3.467048e+003,9.725815e+001
3.467530e+003,9.727406e+001
3.468012e+003,9.729057e+001
3.468494e+003,9.730850e+001
3.468976e+003,9.732803e+001
3.469458e+003,9.734862e+001
3.469941e+003,9.736919e+001
3.470423e+003,9.738861e+001
3.470905e+003,9.740604e+001
3.471387e+003,9.742139e+001
3.471869e+003,9.743539e+001
3.472351e+003,9.744935e+001
3.472833e+003,9.746458e+001
3.473316e+003,9.748172e+001
3.473798e+003,9.750068e+001
3.474280e+003,9.752054e+001
3.474762e+003,9.753994e+001
3.475244e+003,9.755776e+001
3.475726e+003,9.757352e+001
3.476208e+003,9.758737e+001
3.476690e+003,9.760007e+001
3.477173e+003,9.761243e+001
3.477655e+003,9.762501e+001
3.478137e+003,9.763792e+001
3.478619e+003,9.765085e+001
3.479101e+003,9.766341e+001
3.479583e+003,9.767547e+001
3.480065e+003,9.768727e+001
3.480548e+003,9.769936e+001
3.481030e+003,9.771230e+001
3.481512e+003,9.772644e+001
3.481994e+003,9.774166e+001
3.482476e+003,9.775743e+001
3.482958e+003,9.777309e+001
3.483440e+003,9.778802e+001
3.483923e+003,9.780186e+001
3.484405e+003,9.781456e+001
3.484887e+003,9.782626e+001
3.485369e+003,9.783717e+001
3.485851e+003,9.784754e+001
3.486333e+003,9.785762e+001
3.486815e+003,9.786778e+001
3.487298e+003,9.787855e+001
3.487780e+003,9.789054e+001
3.488262e+003,9.790424e+001
3.488744e+003,9.791973e+001
3.489226e+003,9.793671e+001
3.489708e+003,9.795426e+001
3.490190e+003,9.797133e+001
3.490673e+003,9.798689e+001
3.491155e+003,9.800034e+001
3.491637e+003,9.801164e+001
3.492119e+003,9.802119e+001
3.492601e+003,9.802983e+001
3.493083e+003,9.803823e+001
3.493565e+003,9.804698e+001
3.494047e+003,9.805630e+001
3.494530e+003,9.806624e+001
3.495012e+003,9.807670e+001
3.495494e+003,9.808747e+001
3.495976e+003,9.809832e+001
3.496458e+003,9.810893e+001
3.496940e+003,9.811899e+001
3.497422e+003,9.812814e+001
3.497905e+003,9.813627e+001
3.498387e+003,9.814345e+001
3.498869e+003,9.815013e+001
3.499351e+003,9.815691e+001
3.499833e+003,9.816441e+001
3.500315e+003,9.817294e+001
3.500797e+003,9.818249e+001
3.501280e+003,9.819289e+001
3.501762e+003,9.820384e+001
3.502244e+003,9.821532e+001
3.502726e+003,9.822749e+001
3.503208e+003,9.824075e+001
3.503690e+003,9.825536e+001
3.504172e+003,9.827106e+001
3.504655e+003,9.828696e+001
3.505137e+003,9.830176e+001
3.505619e+003,9.831412e+001
3.506101e+003,9.832333e+001
3.506583e+003,9.832961e+001
3.507065e+003,9.833427e+001
3.507547e+003,9.833929e+001
3.508030e+003,9.834660e+001
3.508512e+003,9.835739e+001
3.508994e+003,9.837166e+001
3.509476e+003,9.838811e+001
3.509958e+003,9.840485e+001
3.510440e+003,9.842005e+001
3.510922e+003,9.843258e+001
3.511404e+003,9.844237e+001
3.511886e+003,9.845029e+001
3.512369e+003,9.845763e+001
3.512851e+003,9.846536e+001
3.513333e+003,9.847392e+001
3.513815e+003,9.848283e+001
3.514297e+003,9.849123e+001
3.514779e+003,9.849827e+001
3.515261e+003,9.850356e+001
3.515744e+003,9.850760e+001
3.516226e+003,9.851154e+001
3.516708e+003,9.851686e+001
3.517190e+003,9.852475e+001
3.517672e+003,9.853571e+001
3.518154e+003,9.854918e+001
3.518636e+003,9.856371e+001
3.519119e+003,9.857757e+001
3.519601e+003,9.858907e+001
3.520083e+003,9.859732e+001
3.520565e+003,9.860242e+001
3.521047e+003,9.860550e+001
3.521529e+003,9.860822e+001
3.522011e+003,9.861224e+001
3.522494e+003,9.861862e+001
3.522976e+003,9.862750e+001
3.523458e+003,9.863813e+001
3.523940e+003,9.864920e+001
3.524422e+003,9.865948e+001
3.524904e+003,9.866828e+001
3.525386e+003,9.867582e+001
3.525869e+003,9.868301e+001
3.526351e+003,9.869113e+001
3.526833e+003,9.870122e+001
3.527315e+003,9.871367e+001
3.527797e+003,9.872810e+001
3.528279e+003,9.874353e+001
3.528761e+003,9.875887e+001
3.529243e+003,9.877335e+001
3.529726e+003,9.878677e+001
3.530208e+003,9.879939e+001
3.530690e+003,9.881171e+001
3.531172e+003,9.882388e+001
3.531654e+003,9.883575e+001
3.532136e+003,9.884670e+001
3.532618e+003,9.885609e+001
3.533101e+003,9.886351e+001
3.533583e+003,9.886919e+001
3.534065e+003,9.887393e+001
3.534547e+003,9.887893e+001
3.535029e+003,9.888522e+001
3.535511e+003,9.889339e+001
3.535993e+003,9.890335e+001
3.536476e+003,9.891438e+001
3.536958e+003,9.892561e+001
3.537440e+003,9.893634e+001
3.537922e+003,9.894629e+001
3.538404e+003,9.895569e+001
3.538886e+003,9.896499e+001
